# ADR90 WP-A2 END-OF-RUN plastic field, build 2473ce46c2ae44412246ca305f3843463f389cad (expected 2473ce46c2ae44412246ca305f3843463f389cad), leg h1.0_e0.6944, s/B=0.067800, mode WALL
ele,xc,zc,hx,hz,vol,eps_q_p,eta_grav
1,-26.4626081,-17.706199,7.07478378,4.58760194,16.2281459,5.88533616e-05,0.855053698
2,-26.4626081,-13.6329249,7.07478378,3.55894634,12.5893879,0.000180694203,0.855053698
3,-26.4626081,-10.4729811,7.07478378,2.76094116,9.76653089,0.000297305596,0.855053698
4,-26.4626081,-8.02157615,7.07478378,2.1418688,7.57662931,0.00038785147,0.855053698
5,-26.4626081,-6.11983775,7.07478378,1.66160801,5.87775869,0.000456418287,0.855053698
6,-26.4626081,-4.64451687,7.07478378,1.28903375,4.55981753,0.000509915352,0.855053698
7,-26.4626081,-3.5,7.07478378,1,3.53739189,0.000552721254,0.855053698
8,-26.4626081,-2.5,7.07478378,1,3.53739189,0.000592737533,0.855053698
9,-26.4626081,-1.5,7.07478378,1,3.53739189,0.000637534405,0.855053698
10,-26.4626081,-0.5,7.07478378,1,3.53739189,0.000690086332,0.855053698
11,-20.1552847,-17.706199,5.539863,4.58760194,12.7073431,0.000183056314,0.855053698
12,-20.1552847,-13.6329249,5.539863,3.55894634,9.85803758,0.000310861156,0.855053698
13,-20.1552847,-10.4729811,5.539863,2.76094116,7.64761791,0.000415176466,0.855053698
14,-20.1552847,-8.02157615,5.539863,2.1418688,5.93282985,0.000489858312,0.855053698
15,-20.1552847,-6.11983775,5.539863,1.66160801,4.60254036,0.000536359158,0.855053698
16,-20.1552847,-4.64451687,5.539863,1.28903375,3.57053519,0.000566462048,0.855053698
17,-20.1552847,-3.5,5.539863,1,2.7699315,0.000587434285,0.855053698
18,-20.1552847,-2.5,5.539863,1,2.7699315,0.000608277269,0.855053698
19,-20.1552847,-1.5,5.539863,1,2.7699315,0.000631851156,0.855053698
20,-20.1552847,-0.5,5.539863,1,2.7699315,0.000677278578,0.855053698
21,-15.2163765,-17.706199,4.33795336,4.58760194,9.95040164,0.000355818098,0.855053698
22,-15.2163765,-13.6329249,4.33795336,3.55894634,7.71927162,0.000496829588,0.855053698
23,-15.2163765,-10.4729811,4.33795336,2.76094116,5.98841701,0.000627903106,0.855053698
24,-15.2163765,-8.02157615,4.33795336,2.1418688,4.64566348,0.000704511985,0.855053698
25,-15.2163765,-6.11983775,4.33795336,1.66160801,3.60398902,0.000728545569,0.855053698
26,-15.2163765,-4.64451687,4.33795336,1.28903375,2.79588414,0.000713850601,0.855053698
27,-15.2163765,-3.5,4.33795336,1,2.16897668,0.000680223554,0.855053698
28,-15.2163765,-2.5,4.33795336,1,2.16897668,0.000632380595,0.855053698
29,-15.2163765,-1.5,4.33795336,1,2.16897668,0.000584495384,0.855053698
30,-15.2163765,-0.5,4.33795336,1,2.16897668,0.00052244874,0.855053698
31,-11.3489969,-17.706199,3.39680591,4.58760194,7.79159669,0.000491894064,0.855053698
32,-11.3489969,-13.6329249,3.39680591,3.55894634,6.04452498,0.000635513484,0.855053698
33,-11.3489969,-10.4729811,3.39680591,2.76094116,4.68919063,0.000910568753,0.855053698
34,-11.3489969,-8.02157615,3.39680591,2.1418688,3.63775629,0.00107175681,0.855053698
35,-11.3489969,-6.11983775,3.39680591,1.66160801,2.82207995,0.00108280504,0.855053698
36,-11.3489969,-4.64451687,3.39680591,1.28903375,2.18929873,0.000996346013,0.855053698
37,-11.3489969,-3.5,3.39680591,1,1.69840295,0.000866723714,0.855053698
38,-11.3489969,-2.5,3.39680591,1,1.69840295,0.000712971766,0.855053698
39,-11.3489969,-1.5,3.39680591,1,1.69840295,0.000505648644,0.855053698
40,-11.3489969,-0.5,3.39680591,1,1.69840295,0.000313589818,0.855053698
41,-8.32067065,-17.706199,2.65984657,4.58760194,6.10115865,0.000630576682,0.855053698
42,-8.32067065,-13.6329249,2.65984657,3.55894634,4.73312561,0.000800487543,0.855053698
43,-8.32067065,-10.4729811,2.65984657,2.76094116,3.67183995,0.00117280673,0.855053698
44,-8.32067065,-8.02157615,2.65984657,2.1418688,2.84852119,0.00155604051,0.855053698
45,-8.32067065,-6.11983775,2.65984657,1.66160801,2.20981118,0.00171277845,0.855053698
46,-8.32067065,-4.64451687,2.65984657,1.28903375,1.714316,0.00159322633,0.855053698
47,-8.32067065,-3.5,2.65984657,1,1.32992329,0.00128079446,0.855053698
48,-8.32067065,-2.5,2.65984657,1,1.32992329,0.000876843175,0.855053698
49,-8.32067065,-1.5,2.65984657,1,1.32992329,0.000479585988,0.855053698
50,-8.32067065,-0.5,2.65984657,1,1.32992329,0.000278910281,0.855053698
51,-5.94935967,-17.706199,2.0827754,4.58760194,4.77747223,0.000728638893,0.855053698
52,-5.94935967,-13.6329249,2.0827754,3.55894634,3.70624294,0.00128913691,0.855053698
53,-5.94935967,-10.4729811,2.0827754,2.76094116,2.87521017,0.00198695315,0.855053698
54,-5.94935967,-8.02157615,2.0827754,2.1418688,2.23051582,0.0025746945,0.855053698
55,-5.94935967,-6.11983775,2.0827754,1.66160801,1.73037814,0.00295845217,0.855053698
56,-5.94935967,-4.64451687,2.0827754,1.28903375,1.34238389,0.00291730633,0.855053698
57,-5.94935967,-3.5,2.0827754,1,1.0413877,0.00254503743,0.855053698
58,-5.94935967,-2.5,2.0827754,1,1.0413877,0.00165780174,0.855053698
59,-5.94935967,-1.5,2.0827754,1,1.0413877,0.000531088542,0.855053698
60,-5.94935967,-0.5,2.0827754,1,1.0413877,0.00141089251,0.855053698
61,-4.09252017,-17.706199,1.63090361,4.58760194,3.74096828,0.00077410949,0.855053698
62,-4.09252017,-13.6329249,1.63090361,3.55894634,2.90214921,0.00173815973,0.855053698
63,-4.09252017,-10.4729811,1.63090361,2.76094116,2.25141445,0.00302755889,0.855053698
64,-4.09252017,-8.02157615,1.63090361,2.1418688,1.74659077,0.00448582156,0.855053698
65,-4.09252017,-6.11983775,1.63090361,1.66160801,1.35496124,0.00561339864,0.855053698
66,-4.09252017,-4.64451687,1.63090361,1.28903375,1.05114489,0.00596904362,0.855053698
67,-4.09252017,-3.5,1.63090361,1,0.815451803,0.00574684561,0.855053698
68,-4.09252017,-2.5,1.63090361,1,0.815451803,0.00481049743,0.855053698
69,-4.09252017,-1.5,1.63090361,1,0.815451803,0.00225054761,0.855053698
70,-4.09252017,-0.5,1.63090361,1,0.815451803,0.00250622249,0.855053698
71,-2.63853418,-17.706199,1.27706836,4.58760194,2.92934065,0.000777556705,0.855053698
72,-2.63853418,-13.6329249,1.27706836,3.55894634,2.27250889,0.00210061405,0.855053698
73,-2.63853418,-10.4729811,1.27706836,2.76094116,1.76295531,0.00381645954,0.855053698
74,-2.63853418,-8.02157615,1.27706836,2.1418688,1.36765644,0.00602057189,0.855053698
75,-2.63853418,-6.11983775,1.27706836,1.66160801,1.06099351,0.00855252061,0.855053698
76,-2.63853418,-4.64451687,1.27706836,1.28903375,0.82309211,0.0108091041,0.855053698
77,-2.63853418,-3.5,1.27706836,1,0.638534182,0.0119608104,0.855053698
78,-2.63853418,-2.5,1.27706836,1,0.638534182,0.0122506824,0.855053698
79,-2.63853418,-1.5,1.27706836,1,0.638534182,0.0101690511,0.855053698
80,-2.63853418,-0.5,1.27706836,1,0.638534182,0.00526911014,0.855053698
81,-1.5,-17.706199,1,4.58760194,2.29380097,0.000779195934,0.855053698
82,-1.5,-13.6329249,1,3.55894634,1.77947317,0.00230671733,0.855053698
83,-1.5,-10.4729811,1,2.76094116,1.38047058,0.00427035491,0.855053698
84,-1.5,-8.02157615,1,2.1418688,1.0709344,0.00700831046,0.855053698
85,-1.5,-6.11983775,1,1.66160801,0.830804003,0.0106462418,0.855053698
86,-1.5,-4.64451687,1,1.28903375,0.644516874,0.0150046935,0.855053698
87,-1.5,-3.5,1,1,0.5,0.0199753084,0.855053698
88,-1.5,-2.5,1,1,0.5,0.0249828143,0.855053698
89,-1.5,-1.5,1,1,0.5,0.0310578498,0.855053698
90,-1.5,-0.5,1,1,0.5,0.0367579141,0.855053698
91,-0.5,-17.706199,1,4.58760194,2.29380097,0.000774070845,0.855053698
92,-0.5,-13.6329249,1,3.55894634,1.77947317,0.00239143249,0.855053698
93,-0.5,-10.4729811,1,2.76094116,1.38047058,0.00446389619,0.855053698
94,-0.5,-8.02157615,1,2.1418688,1.0709344,0.00739074949,0.855053698
95,-0.5,-6.11983775,1,1.66160801,0.830804003,0.0112554046,0.855053698
96,-0.5,-4.64451687,1,1.28903375,0.644516874,0.0153878504,0.855053698
97,-0.5,-3.5,1,1,0.5,0.0186774847,0.855053698
98,-0.5,-2.5,1,1,0.5,0.0195874998,0.855053698
99,-0.5,-1.5,1,1,0.5,0.0155811263,0.855053698
100,-0.5,-0.5,1,1,0.5,0.00617115441,0.855053698
101,0.5,-17.706199,1,4.58760194,2.29380097,0.000774214536,0.855053698
102,0.5,-13.6329249,1,3.55894634,1.77947317,0.00239132713,0.855053698
103,0.5,-10.4729811,1,2.76094116,1.38047058,0.00446340865,0.855053698
104,0.5,-8.02157615,1,2.1418688,1.0709344,0.00739061825,0.855053698
105,0.5,-6.11983775,1,1.66160801,0.830804003,0.0112562777,0.855053698
106,0.5,-4.64451687,1,1.28903375,0.644516874,0.0153887721,0.855053698
107,0.5,-3.5,1,1,0.5,0.0186785322,0.855053698
108,0.5,-2.5,1,1,0.5,0.0195865739,0.855053698
109,0.5,-1.5,1,1,0.5,0.0155815272,0.855053698
110,0.5,-0.5,1,1,0.5,0.00617300887,0.855053698
111,1.5,-17.706199,1,4.58760194,2.29380097,0.000778978097,0.855053698
112,1.5,-13.6329249,1,3.55894634,1.77947317,0.00230712598,0.855053698
113,1.5,-10.4729811,1,2.76094116,1.38047058,0.00426966808,0.855053698
114,1.5,-8.02157615,1,2.1418688,1.0709344,0.0070074675,0.855053698
115,1.5,-6.11983775,1,1.66160801,0.830804003,0.0106470446,0.855053698
116,1.5,-4.64451687,1,1.28903375,0.644516874,0.015005591,0.855053698
117,1.5,-3.5,1,1,0.5,0.0199799484,0.855053698
118,1.5,-2.5,1,1,0.5,0.0249808322,0.855053698
119,1.5,-1.5,1,1,0.5,0.0310673916,0.855053698
120,1.5,-0.5,1,1,0.5,0.0367557815,0.855053698
121,2.63853418,-17.706199,1.27706836,4.58760194,2.92934065,0.000777622125,0.855053698
122,2.63853418,-13.6329249,1.27706836,3.55894634,2.27250889,0.00210044522,0.855053698
123,2.63853418,-10.4729811,1.27706836,2.76094116,1.76295531,0.00381548352,0.855053698
124,2.63853418,-8.02157615,1.27706836,2.1418688,1.36765644,0.00601906358,0.855053698
125,2.63853418,-6.11983775,1.27706836,1.66160801,1.06099351,0.00855239085,0.855053698
126,2.63853418,-4.64451687,1.27706836,1.28903375,0.82309211,0.0108096481,0.855053698
127,2.63853418,-3.5,1.27706836,1,0.638534182,0.0119611182,0.855053698
128,2.63853418,-2.5,1.27706836,1,0.638534182,0.0122459696,0.855053698
129,2.63853418,-1.5,1.27706836,1,0.638534182,0.0101729999,0.855053698
130,2.63853418,-0.5,1.27706836,1,0.638534182,0.0052671984,0.855053698
131,4.09252017,-17.706199,1.63090361,4.58760194,3.74096828,0.000774071159,0.855053698
132,4.09252017,-13.6329249,1.63090361,3.55894634,2.90214921,0.00173822226,0.855053698
133,4.09252017,-10.4729811,1.63090361,2.76094116,2.25141445,0.00302695383,0.855053698
134,4.09252017,-8.02157615,1.63090361,2.1418688,1.74659077,0.00448483681,0.855053698
135,4.09252017,-6.11983775,1.63090361,1.66160801,1.35496124,0.00561245157,0.855053698
136,4.09252017,-4.64451687,1.63090361,1.28903375,1.05114489,0.00596701005,0.855053698
137,4.09252017,-3.5,1.63090361,1,0.815451803,0.00574584586,0.855053698
138,4.09252017,-2.5,1.63090361,1,0.815451803,0.00480987938,0.855053698
139,4.09252017,-1.5,1.63090361,1,0.815451803,0.00225159907,0.855053698
140,4.09252017,-0.5,1.63090361,1,0.815451803,0.00250139297,0.855053698
141,5.94935967,-17.706199,2.0827754,4.58760194,4.77747223,0.000728894447,0.855053698
142,5.94935967,-13.6329249,2.0827754,3.55894634,3.70624294,0.00128878392,0.855053698
143,5.94935967,-10.4729811,2.0827754,2.76094116,2.87521017,0.00198665218,0.855053698
144,5.94935967,-8.02157615,2.0827754,2.1418688,2.23051582,0.00257453818,0.855053698
145,5.94935967,-6.11983775,2.0827754,1.66160801,1.73037814,0.0029587275,0.855053698
146,5.94935967,-4.64451687,2.0827754,1.28903375,1.34238389,0.00291713576,0.855053698
147,5.94935967,-3.5,2.0827754,1,1.0413877,0.00254451275,0.855053698
148,5.94935967,-2.5,2.0827754,1,1.0413877,0.00165802156,0.855053698
149,5.94935967,-1.5,2.0827754,1,1.0413877,0.000531410958,0.855053698
150,5.94935967,-0.5,2.0827754,1,1.0413877,0.00141067388,0.855053698
151,8.32067065,-17.706199,2.65984657,4.58760194,6.10115865,0.000630929641,0.855053698
152,8.32067065,-13.6329249,2.65984657,3.55894634,4.73312561,0.000800438459,0.855053698
153,8.32067065,-10.4729811,2.65984657,2.76094116,3.67183995,0.00117258828,0.855053698
154,8.32067065,-8.02157615,2.65984657,2.1418688,2.84852119,0.00155587074,0.855053698
155,8.32067065,-6.11983775,2.65984657,1.66160801,2.20981118,0.00171262695,0.855053698
156,8.32067065,-4.64451687,2.65984657,1.28903375,1.714316,0.00159304931,0.855053698
157,8.32067065,-3.5,2.65984657,1,1.32992329,0.00128078506,0.855053698
158,8.32067065,-2.5,2.65984657,1,1.32992329,0.000876891849,0.855053698
159,8.32067065,-1.5,2.65984657,1,1.32992329,0.000479456232,0.855053698
160,8.32067065,-0.5,2.65984657,1,1.32992329,0.000279430594,0.855053698
161,11.3489969,-17.706199,3.39680591,4.58760194,7.79159669,0.000491745699,0.855053698
162,11.3489969,-13.6329249,3.39680591,3.55894634,6.04452498,0.000635519709,0.855053698
163,11.3489969,-10.4729811,3.39680591,2.76094116,4.68919063,0.000910504755,0.855053698
164,11.3489969,-8.02157615,3.39680591,2.1418688,3.63775629,0.00107195647,0.855053698
165,11.3489969,-6.11983775,3.39680591,1.66160801,2.82207995,0.00108231371,0.855053698
166,11.3489969,-4.64451687,3.39680591,1.28903375,2.18929873,0.000996241626,0.855053698
167,11.3489969,-3.5,3.39680591,1,1.69840295,0.000866616594,0.855053698
168,11.3489969,-2.5,3.39680591,1,1.69840295,0.000713195569,0.855053698
169,11.3489969,-1.5,3.39680591,1,1.69840295,0.000505548209,0.855053698
170,11.3489969,-0.5,3.39680591,1,1.69840295,0.000313734013,0.855053698
171,15.2163765,-17.706199,4.33795336,4.58760194,9.95040164,0.000355830058,0.855053698
172,15.2163765,-13.6329249,4.33795336,3.55894634,7.71927162,0.000496780469,0.855053698
173,15.2163765,-10.4729811,4.33795336,2.76094116,5.98841701,0.000628040995,0.855053698
174,15.2163765,-8.02157615,4.33795336,2.1418688,4.64566348,0.000703971136,0.855053698
175,15.2163765,-6.11983775,4.33795336,1.66160801,3.60398902,0.000728500111,0.855053698
176,15.2163765,-4.64451687,4.33795336,1.28903375,2.79588414,0.000713374384,0.855053698
177,15.2163765,-3.5,4.33795336,1,2.16897668,0.000680170135,0.855053698
178,15.2163765,-2.5,4.33795336,1,2.16897668,0.000632456958,0.855053698
179,15.2163765,-1.5,4.33795336,1,2.16897668,0.000584222171,0.855053698
180,15.2163765,-0.5,4.33795336,1,2.16897668,0.000522346533,0.855053698
181,20.1552847,-17.706199,5.539863,4.58760194,12.7073431,0.000183109177,0.855053698
182,20.1552847,-13.6329249,5.539863,3.55894634,9.85803758,0.000310740594,0.855053698
183,20.1552847,-10.4729811,5.539863,2.76094116,7.64761791,0.000415227319,0.855053698
184,20.1552847,-8.02157615,5.539863,2.1418688,5.93282985,0.000489764286,0.855053698
185,20.1552847,-6.11983775,5.539863,1.66160801,4.60254036,0.000536364378,0.855053698
186,20.1552847,-4.64451687,5.539863,1.28903375,3.57053519,0.000566440675,0.855053698
187,20.1552847,-3.5,5.539863,1,2.7699315,0.000587408134,0.855053698
188,20.1552847,-2.5,5.539863,1,2.7699315,0.000608181517,0.855053698
189,20.1552847,-1.5,5.539863,1,2.7699315,0.00063169304,0.855053698
190,20.1552847,-0.5,5.539863,1,2.7699315,0.000677286683,0.855053698
191,26.4626081,-17.706199,7.07478378,4.58760194,16.2281459,5.87808424e-05,0.855053698
192,26.4626081,-13.6329249,7.07478378,3.55894634,12.5893879,0.000180284998,0.855053698
193,26.4626081,-10.4729811,7.07478378,2.76094116,9.76653089,0.000297165159,0.855053698
194,26.4626081,-8.02157615,7.07478378,2.1418688,7.57662931,0.000387927197,0.855053698
195,26.4626081,-6.11983775,7.07478378,1.66160801,5.87775869,0.000456353701,0.855053698
196,26.4626081,-4.64451687,7.07478378,1.28903375,4.55981753,0.000509881349,0.855053698
197,26.4626081,-3.5,7.07478378,1,3.53739189,0.000552716544,0.855053698
198,26.4626081,-2.5,7.07478378,1,3.53739189,0.000592454307,0.855053698
199,26.4626081,-1.5,7.07478378,1,3.53739189,0.000637671329,0.855053698
200,26.4626081,-0.5,7.07478378,1,3.53739189,0.000690164118,0.855053698
