# ADR90 WP-A2 plastic field at CHECKPOINT s/B=0.002 (actual 0.002180), build any, leg h1.0_e0.6944, q_foot=73.8444 kPa
ele,xc,zc,hx,hz,vol,eps_q_p,eta_grav
1,-26.4626081,-17.706199,7.07478378,4.58760194,16.2281459,1.36879734e-08,0.855053698
2,-26.4626081,-13.6329249,7.07478378,3.55894634,12.5893879,2.23185806e-07,0.855053698
3,-26.4626081,-10.4729811,7.07478378,2.76094116,9.76653089,5.52768035e-07,0.855053698
4,-26.4626081,-8.02157615,7.07478378,2.1418688,7.57662931,8.63563149e-07,0.855053698
5,-26.4626081,-6.11983775,7.07478378,1.66160801,5.87775869,1.1381445e-06,0.855053698
6,-26.4626081,-4.64451687,7.07478378,1.28903375,4.55981753,1.38666738e-06,0.855053698
7,-26.4626081,-3.5,7.07478378,1,3.53739189,1.62346241e-06,0.855053698
8,-26.4626081,-2.5,7.07478378,1,3.53739189,1.89353594e-06,0.855053698
9,-26.4626081,-1.5,7.07478378,1,3.53739189,2.28251806e-06,0.855053698
10,-26.4626081,-0.5,7.07478378,1,3.53739189,2.98675663e-06,0.855053698
11,-20.1552847,-17.706199,5.539863,4.58760194,12.7073431,1.92670155e-07,0.855053698
12,-20.1552847,-13.6329249,5.539863,3.55894634,9.85803758,5.04748682e-07,0.855053698
13,-20.1552847,-10.4729811,5.539863,2.76094116,7.64761791,9.15317766e-07,0.855053698
14,-20.1552847,-8.02157615,5.539863,2.1418688,5.93282985,1.27796656e-06,0.855053698
15,-20.1552847,-6.11983775,5.539863,1.66160801,4.60254036,1.55092363e-06,0.855053698
16,-20.1552847,-4.64451687,5.539863,1.28903375,3.57053519,1.76641948e-06,0.855053698
17,-20.1552847,-3.5,5.539863,1,2.7699315,1.95335164e-06,0.855053698
18,-20.1552847,-2.5,5.539863,1,2.7699315,2.15108829e-06,0.855053698
19,-20.1552847,-1.5,5.539863,1,2.7699315,2.46206913e-06,0.855053698
20,-20.1552847,-0.5,5.539863,1,2.7699315,3.08896129e-06,0.855053698
21,-15.2163765,-17.706199,4.33795336,4.58760194,9.95040164,1.72873621e-06,0.855053698
22,-15.2163765,-13.6329249,4.33795336,3.55894634,7.71927162,1.13688152e-06,0.855053698
23,-15.2163765,-10.4729811,4.33795336,2.76094116,5.98841701,1.81668756e-06,0.855053698
24,-15.2163765,-8.02157615,4.33795336,2.1418688,4.64566348,2.35088519e-06,0.855053698
25,-15.2163765,-6.11983775,4.33795336,1.66160801,3.60398902,2.64941121e-06,0.855053698
26,-15.2163765,-4.64451687,4.33795336,1.28903375,2.79588414,2.73850153e-06,0.855053698
27,-15.2163765,-3.5,4.33795336,1,2.16897668,2.72868128e-06,0.855053698
28,-15.2163765,-2.5,4.33795336,1,2.16897668,2.72046117e-06,0.855053698
29,-15.2163765,-1.5,4.33795336,1,2.16897668,2.71505488e-06,0.855053698
30,-15.2163765,-0.5,4.33795336,1,2.16897668,2.90327293e-06,0.855053698
31,-11.3489969,-17.706199,3.39680591,4.58760194,7.79159669,2.82778323e-06,0.855053698
32,-11.3489969,-13.6329249,3.39680591,3.55894634,6.04452498,1.90366113e-06,0.855053698
33,-11.3489969,-10.4729811,3.39680591,2.76094116,4.68919063,3.28043116e-06,0.855053698
34,-11.3489969,-8.02157615,3.39680591,2.1418688,3.63775629,4.54564075e-06,0.855053698
35,-11.3489969,-6.11983775,3.39680591,1.66160801,2.82207995,5.2054092e-06,0.855053698
36,-11.3489969,-4.64451687,3.39680591,1.28903375,2.18929873,5.30769688e-06,0.855053698
37,-11.3489969,-3.5,3.39680591,1,1.69840295,4.8911851e-06,0.855053698
38,-11.3489969,-2.5,3.39680591,1,1.69840295,4.05543702e-06,0.855053698
39,-11.3489969,-1.5,3.39680591,1,1.69840295,3.1048665e-06,0.855053698
40,-11.3489969,-0.5,3.39680591,1,1.69840295,2.16815689e-06,0.855053698
41,-8.32067065,-17.706199,2.65984657,4.58760194,6.10115865,5.67332319e-06,0.855053698
42,-8.32067065,-13.6329249,2.65984657,3.55894634,4.73312561,9.92762079e-06,0.855053698
43,-8.32067065,-10.4729811,2.65984657,2.76094116,3.67183995,5.31625169e-06,0.855053698
44,-8.32067065,-8.02157615,2.65984657,2.1418688,2.84852119,9.07568239e-06,0.855053698
45,-8.32067065,-6.11983775,2.65984657,1.66160801,2.20981118,1.14446125e-05,0.855053698
46,-8.32067065,-4.64451687,2.65984657,1.28903375,1.714316,1.12566157e-05,0.855053698
47,-8.32067065,-3.5,2.65984657,1,1.32992329,9.70232659e-06,0.855053698
48,-8.32067065,-2.5,2.65984657,1,1.32992329,7.65933672e-06,0.855053698
49,-8.32067065,-1.5,2.65984657,1,1.32992329,4.55647555e-06,0.855053698
50,-8.32067065,-0.5,2.65984657,1,1.32992329,1.29747729e-06,0.855053698
51,-5.94935967,-17.706199,2.0827754,4.58760194,4.77747223,9.2598886e-06,0.855053698
52,-5.94935967,-13.6329249,2.0827754,3.55894634,3.70624294,1.92362003e-05,0.855053698
53,-5.94935967,-10.4729811,2.0827754,2.76094116,2.87521017,1.66114621e-05,0.855053698
54,-5.94935967,-8.02157615,2.0827754,2.1418688,2.23051582,1.42921083e-05,0.855053698
55,-5.94935967,-6.11983775,2.0827754,1.66160801,1.73037814,2.2703372e-05,0.855053698
56,-5.94935967,-4.64451687,2.0827754,1.28903375,1.34238389,2.55787775e-05,0.855053698
57,-5.94935967,-3.5,2.0827754,1,1.0413877,2.3242653e-05,0.855053698
58,-5.94935967,-2.5,2.0827754,1,1.0413877,1.67072042e-05,0.855053698
59,-5.94935967,-1.5,2.0827754,1,1.0413877,9.88239191e-06,0.855053698
60,-5.94935967,-0.5,2.0827754,1,1.0413877,4.24946722e-06,0.855053698
61,-4.09252017,-17.706199,1.63090361,4.58760194,3.74096828,9.64491853e-06,0.855053698
62,-4.09252017,-13.6329249,1.63090361,3.55894634,2.90214921,3.24942404e-05,0.855053698
63,-4.09252017,-10.4729811,1.63090361,2.76094116,2.25141445,5.69915064e-05,0.855053698
64,-4.09252017,-8.02157615,1.63090361,2.1418688,1.74659077,7.76035981e-05,0.855053698
65,-4.09252017,-6.11983775,1.63090361,1.66160801,1.35496124,7.21637334e-05,0.855053698
66,-4.09252017,-4.64451687,1.63090361,1.28903375,1.05114489,6.0295746e-05,0.855053698
67,-4.09252017,-3.5,1.63090361,1,0.815451803,7.2846003e-05,0.855053698
68,-4.09252017,-2.5,1.63090361,1,0.815451803,6.97521242e-05,0.855053698
69,-4.09252017,-1.5,1.63090361,1,0.815451803,3.48822684e-05,0.855053698
70,-4.09252017,-0.5,1.63090361,1,0.815451803,3.74997591e-05,0.855053698
71,-2.63853418,-17.706199,1.27706836,4.58760194,2.92934065,9.22594519e-06,0.855053698
72,-2.63853418,-13.6329249,1.27706836,3.55894634,2.27250889,3.89687882e-05,0.855053698
73,-2.63853418,-10.4729811,1.27706836,2.76094116,1.76295531,7.14324831e-05,0.855053698
74,-2.63853418,-8.02157615,1.27706836,2.1418688,1.36765644,0.000116112095,0.855053698
75,-2.63853418,-6.11983775,1.27706836,1.66160801,1.06099351,0.000167472453,0.855053698
76,-2.63853418,-4.64451687,1.27706836,1.28903375,0.82309211,0.000178239114,0.855053698
77,-2.63853418,-3.5,1.27706836,1,0.638534182,0.000162743693,0.855053698
78,-2.63853418,-2.5,1.27706836,1,0.638534182,0.000228408028,0.855053698
79,-2.63853418,-1.5,1.27706836,1,0.638534182,0.000210573029,0.855053698
80,-2.63853418,-0.5,1.27706836,1,0.638534182,0.000110962089,0.855053698
81,-1.5,-17.706199,1,4.58760194,2.29380097,8.82732033e-06,0.855053698
82,-1.5,-13.6329249,1,3.55894634,1.77947317,3.97677334e-05,0.855053698
83,-1.5,-10.4729811,1,2.76094116,1.38047058,8.2886782e-05,0.855053698
84,-1.5,-8.02157615,1,2.1418688,1.0709344,0.000147462786,0.855053698
85,-1.5,-6.11983775,1,1.66160801,0.830804003,0.000225612365,0.855053698
86,-1.5,-4.64451687,1,1.28903375,0.644516874,0.000338744388,0.855053698
87,-1.5,-3.5,1,1,0.5,0.000449869867,0.855053698
88,-1.5,-2.5,1,1,0.5,0.000615074035,0.855053698
89,-1.5,-1.5,1,1,0.5,0.000794357288,0.855053698
90,-1.5,-0.5,1,1,0.5,0.00123243188,0.855053698
91,-0.5,-17.706199,1,4.58760194,2.29380097,8.1790807e-06,0.855053698
92,-0.5,-13.6329249,1,3.55894634,1.77947317,4.02646072e-05,0.855053698
93,-0.5,-10.4729811,1,2.76094116,1.38047058,8.97527403e-05,0.855053698
94,-0.5,-8.02157615,1,2.1418688,1.0709344,0.000156748287,0.855053698
95,-0.5,-6.11983775,1,1.66160801,0.830804003,0.00026575084,0.855053698
96,-0.5,-4.64451687,1,1.28903375,0.644516874,0.000390224447,0.855053698
97,-0.5,-3.5,1,1,0.5,0.000501939399,0.855053698
98,-0.5,-2.5,1,1,0.5,0.000648439924,0.855053698
99,-0.5,-1.5,1,1,0.5,0.000659112057,0.855053698
100,-0.5,-0.5,1,1,0.5,0.000280027384,0.855053698
101,0.5,-17.706199,1,4.58760194,2.29380097,8.18037397e-06,0.855053698
102,0.5,-13.6329249,1,3.55894634,1.77947317,4.02581768e-05,0.855053698
103,0.5,-10.4729811,1,2.76094116,1.38047058,8.96917176e-05,0.855053698
104,0.5,-8.02157615,1,2.1418688,1.0709344,0.000156835932,0.855053698
105,0.5,-6.11983775,1,1.66160801,0.830804003,0.000265744343,0.855053698
106,0.5,-4.64451687,1,1.28903375,0.644516874,0.000390197006,0.855053698
107,0.5,-3.5,1,1,0.5,0.000501880313,0.855053698
108,0.5,-2.5,1,1,0.5,0.000648402176,0.855053698
109,0.5,-1.5,1,1,0.5,0.000659173838,0.855053698
110,0.5,-0.5,1,1,0.5,0.000279850895,0.855053698
111,1.5,-17.706199,1,4.58760194,2.29380097,8.81888632e-06,0.855053698
112,1.5,-13.6329249,1,3.55894634,1.77947317,3.97522041e-05,0.855053698
113,1.5,-10.4729811,1,2.76094116,1.38047058,8.28701526e-05,0.855053698
114,1.5,-8.02157615,1,2.1418688,1.0709344,0.000147721155,0.855053698
115,1.5,-6.11983775,1,1.66160801,0.830804003,0.000225656539,0.855053698
116,1.5,-4.64451687,1,1.28903375,0.644516874,0.000338651481,0.855053698
117,1.5,-3.5,1,1,0.5,0.000449897516,0.855053698
118,1.5,-2.5,1,1,0.5,0.000614859746,0.855053698
119,1.5,-1.5,1,1,0.5,0.000794441493,0.855053698
120,1.5,-0.5,1,1,0.5,0.00123235715,0.855053698
121,2.63853418,-17.706199,1.27706836,4.58760194,2.92934065,9.2307954e-06,0.855053698
122,2.63853418,-13.6329249,1.27706836,3.55894634,2.27250889,3.87266123e-05,0.855053698
123,2.63853418,-10.4729811,1.27706836,2.76094116,1.76295531,7.14014548e-05,0.855053698
124,2.63853418,-8.02157615,1.27706836,2.1418688,1.36765644,0.000116221985,0.855053698
125,2.63853418,-6.11983775,1.27706836,1.66160801,1.06099351,0.000167284663,0.855053698
126,2.63853418,-4.64451687,1.27706836,1.28903375,0.82309211,0.000178074849,0.855053698
127,2.63853418,-3.5,1.27706836,1,0.638534182,0.000162763259,0.855053698
128,2.63853418,-2.5,1.27706836,1,0.638534182,0.00022822516,0.855053698
129,2.63853418,-1.5,1.27706836,1,0.638534182,0.000210669353,0.855053698
130,2.63853418,-0.5,1.27706836,1,0.638534182,0.000110908657,0.855053698
131,4.09252017,-17.706199,1.63090361,4.58760194,3.74096828,9.65267584e-06,0.855053698
132,4.09252017,-13.6329249,1.63090361,3.55894634,2.90214921,3.2489855e-05,0.855053698
133,4.09252017,-10.4729811,1.63090361,2.76094116,2.25141445,5.7025272e-05,0.855053698
134,4.09252017,-8.02157615,1.63090361,2.1418688,1.74659077,7.76392052e-05,0.855053698
135,4.09252017,-6.11983775,1.63090361,1.66160801,1.35496124,7.22018295e-05,0.855053698
136,4.09252017,-4.64451687,1.63090361,1.28903375,1.05114489,6.0292059e-05,0.855053698
137,4.09252017,-3.5,1.63090361,1,0.815451803,7.28557701e-05,0.855053698
138,4.09252017,-2.5,1.63090361,1,0.815451803,6.97329321e-05,0.855053698
139,4.09252017,-1.5,1.63090361,1,0.815451803,3.49509247e-05,0.855053698
140,4.09252017,-0.5,1.63090361,1,0.815451803,3.74763531e-05,0.855053698
141,5.94935967,-17.706199,2.0827754,4.58760194,4.77747223,9.25944672e-06,0.855053698
142,5.94935967,-13.6329249,2.0827754,3.55894634,3.70624294,1.92327837e-05,0.855053698
143,5.94935967,-10.4729811,2.0827754,2.76094116,2.87521017,1.66229353e-05,0.855053698
144,5.94935967,-8.02157615,2.0827754,2.1418688,2.23051582,1.42941543e-05,0.855053698
145,5.94935967,-6.11983775,2.0827754,1.66160801,1.73037814,2.2640798e-05,0.855053698
146,5.94935967,-4.64451687,2.0827754,1.28903375,1.34238389,2.56305021e-05,0.855053698
147,5.94935967,-3.5,2.0827754,1,1.0413877,2.33426367e-05,0.855053698
148,5.94935967,-2.5,2.0827754,1,1.0413877,1.66996643e-05,0.855053698
149,5.94935967,-1.5,2.0827754,1,1.0413877,9.90990733e-06,0.855053698
150,5.94935967,-0.5,2.0827754,1,1.0413877,4.25332756e-06,0.855053698
151,8.32067065,-17.706199,2.65984657,4.58760194,6.10115865,5.67300572e-06,0.855053698
152,8.32067065,-13.6329249,2.65984657,3.55894634,4.73312561,9.9279242e-06,0.855053698
153,8.32067065,-10.4729811,2.65984657,2.76094116,3.67183995,5.31616731e-06,0.855053698
154,8.32067065,-8.02157615,2.65984657,2.1418688,2.84852119,9.07231327e-06,0.855053698
155,8.32067065,-6.11983775,2.65984657,1.66160801,2.20981118,1.14412396e-05,0.855053698
156,8.32067065,-4.64451687,2.65984657,1.28903375,1.714316,1.1256521e-05,0.855053698
157,8.32067065,-3.5,2.65984657,1,1.32992329,9.70121484e-06,0.855053698
158,8.32067065,-2.5,2.65984657,1,1.32992329,7.65843562e-06,0.855053698
159,8.32067065,-1.5,2.65984657,1,1.32992329,4.55456185e-06,0.855053698
160,8.32067065,-0.5,2.65984657,1,1.32992329,1.29833082e-06,0.855053698
161,11.3489969,-17.706199,3.39680591,4.58760194,7.79159669,2.82801923e-06,0.855053698
162,11.3489969,-13.6329249,3.39680591,3.55894634,6.04452498,1.90334657e-06,0.855053698
163,11.3489969,-10.4729811,3.39680591,2.76094116,4.68919063,3.28006582e-06,0.855053698
164,11.3489969,-8.02157615,3.39680591,2.1418688,3.63775629,4.54617569e-06,0.855053698
165,11.3489969,-6.11983775,3.39680591,1.66160801,2.82207995,5.20354012e-06,0.855053698
166,11.3489969,-4.64451687,3.39680591,1.28903375,2.18929873,5.30321705e-06,0.855053698
167,11.3489969,-3.5,3.39680591,1,1.69840295,4.88937269e-06,0.855053698
168,11.3489969,-2.5,3.39680591,1,1.69840295,4.0541342e-06,0.855053698
169,11.3489969,-1.5,3.39680591,1,1.69840295,3.10344096e-06,0.855053698
170,11.3489969,-0.5,3.39680591,1,1.69840295,2.15189498e-06,0.855053698
171,15.2163765,-17.706199,4.33795336,4.58760194,9.95040164,1.72914148e-06,0.855053698
172,15.2163765,-13.6329249,4.33795336,3.55894634,7.71927162,1.13674548e-06,0.855053698
173,15.2163765,-10.4729811,4.33795336,2.76094116,5.98841701,1.81632737e-06,0.855053698
174,15.2163765,-8.02157615,4.33795336,2.1418688,4.64566348,2.35030741e-06,0.855053698
175,15.2163765,-6.11983775,4.33795336,1.66160801,3.60398902,2.64885903e-06,0.855053698
176,15.2163765,-4.64451687,4.33795336,1.28903375,2.79588414,2.73791249e-06,0.855053698
177,15.2163765,-3.5,4.33795336,1,2.16897668,2.72772279e-06,0.855053698
178,15.2163765,-2.5,4.33795336,1,2.16897668,2.71923929e-06,0.855053698
179,15.2163765,-1.5,4.33795336,1,2.16897668,2.71374636e-06,0.855053698
180,15.2163765,-0.5,4.33795336,1,2.16897668,2.90177392e-06,0.855053698
181,20.1552847,-17.706199,5.539863,4.58760194,12.7073431,1.92646209e-07,0.855053698
182,20.1552847,-13.6329249,5.539863,3.55894634,9.85803758,5.04673925e-07,0.855053698
183,20.1552847,-10.4729811,5.539863,2.76094116,7.64761791,9.15164501e-07,0.855053698
184,20.1552847,-8.02157615,5.539863,2.1418688,5.93282985,1.27772675e-06,0.855053698
185,20.1552847,-6.11983775,5.539863,1.66160801,4.60254036,1.55054321e-06,0.855053698
186,20.1552847,-4.64451687,5.539863,1.28903375,3.57053519,1.76590997e-06,0.855053698
187,20.1552847,-3.5,5.539863,1,2.7699315,1.95281497e-06,0.855053698
188,20.1552847,-2.5,5.539863,1,2.7699315,2.15047013e-06,0.855053698
189,20.1552847,-1.5,5.539863,1,2.7699315,2.46127767e-06,0.855053698
190,20.1552847,-0.5,5.539863,1,2.7699315,3.08792168e-06,0.855053698
191,26.4626081,-17.706199,7.07478378,4.58760194,16.2281459,1.36845401e-08,0.855053698
192,26.4626081,-13.6329249,7.07478378,3.55894634,12.5893879,2.2315221e-07,0.855053698
193,26.4626081,-10.4729811,7.07478378,2.76094116,9.76653089,5.52675649e-07,0.855053698
194,26.4626081,-8.02157615,7.07478378,2.1418688,7.57662931,8.63392729e-07,0.855053698
195,26.4626081,-6.11983775,7.07478378,1.66160801,5.87775869,1.13789854e-06,0.855053698
196,26.4626081,-4.64451687,7.07478378,1.28903375,4.55981753,1.3863456e-06,0.855053698
197,26.4626081,-3.5,7.07478378,1,3.53739189,1.62305103e-06,0.855053698
198,26.4626081,-2.5,7.07478378,1,3.53739189,1.89304e-06,0.855053698
199,26.4626081,-1.5,7.07478378,1,3.53739189,2.2819199e-06,0.855053698
200,26.4626081,-0.5,7.07478378,1,3.53739189,2.98599707e-06,0.855053698
