# ADR90 WP-A2 tau=0 band, build 2473ce46c2ae44412246ca305f3843463f389cad (expected 2473ce46c2ae44412246ca305f3843463f389cad), leg h1.0_e0.6944
s_m,s_over_B,q_foot_kPa,q_base_kPa,ds_mm,relaxed,wall_s,implex_err_avg,implex_refusals
2e-05,1e-05,2.73884294,-0.563280637,0.02,0,0.0579624176,0.00226130872,0
4e-05,2e-05,2.23070501,-2.16056071,0.02,0,0.118812799,0.000430746085,0
6e-05,3e-05,2.59500075,-2.65246655,0.02,0,0.182654619,0.000224179238,0
8e-05,4e-05,2.97768936,-3.00798077,0.02,0,0.247164726,0.000154133543,0
0.0001,5e-05,3.34883649,-3.36159697,0.02,0,0.3718822,9.26460994e-05,0
0.00012,6e-05,3.73757147,-3.73888508,0.04,0,0.43616271,7.2683314e-05,0
0.00016,8e-05,4.52069692,-4.52528639,0.04,0,0.528844118,0.000122380239,0
0.0002,0.0001,5.29987018,-5.31796094,0.04,0,0.596832037,0.000132585133,0
0.00024,0.00012,6.06593397,-6.08599026,0.04,0,0.668246031,0.000117258672,0
0.00028,0.00014,6.81866112,-6.83283126,0.04,0,0.76506114,8.82562031e-05,0
0.00032,0.00016,7.55392357,-7.55644309,0.04,0,0.849202394,6.79547692e-05,0
0.00036,0.00018,8.25850511,-8.25787319,0.08,0,0.931425571,5.33667667e-05,0
0.00044,0.00022,9.64259267,-9.63708318,0.08,0,1.02232361,9.47421011e-05,0
0.00052,0.00026,10.9719996,-10.9794844,0.08,0,1.11837363,0.000108955493,0
0.0006,0.0003,12.2738929,-12.276588,0.08,0,1.21457171,0.000103668125,0
0.00068,0.00034,13.5396263,-13.5515288,0.08,0,1.31290841,9.48270367e-05,0
0.00076,0.00038,14.7852969,-14.7998621,0.08,0,1.41240311,9.36703051e-05,0
0.00084,0.00042,16.0103887,-16.018875,0.16,0,1.50884938,8.75143328e-05,0
0.001,0.0005,18.4551884,-18.4572498,0.16,0,1.6578846,0.000131820735,0
0.00116,0.00058,20.8648858,-20.8720837,0.16,0,1.79646325,0.000157242985,0
0.00132,0.00066,23.2369183,-23.2584819,0.16,0,1.92603779,0.000157158155,0
0.00148,0.00074,25.5782854,-25.7478013,0.16,0,2.08179522,0.000157987849,0
0.00164,0.00082,27.8847329,-27.8969326,0.16,0,2.22623873,0.000155943301,0
0.0018,0.0009,30.1423464,-29.6986785,0.32,0,2.34861732,0.000159783943,0
0.00212,0.00106,34.6375079,-34.2310558,0.32,0,2.55762029,0.000227304148,0
0.00244,0.00122,39.1081293,-38.8385319,0.32,0,2.77354336,0.000271377146,0
0.00276,0.00138,43.5178791,-43.3266307,0.32,0,2.97719693,0.000298954938,0
0.00308,0.00154,47.83519,-47.754455,0.32,0,3.17950773,0.000301372457,0
0.0034,0.0017,52.0983452,-52.1229764,0.32,0,3.38753939,0.000288738321,0
0.00372,0.00186,56.3152,-56.3524419,0.64,0,3.60096264,0.000265980433,0
0.00436,0.00218,64.7508202,-64.8621108,0.64,0,3.92959571,0.000344221917,0
0.005,0.0025,73.2112226,-73.262157,0.64,0,4.26713371,0.000438037525,0
0.00564,0.00282,81.4829653,-81.495595,0.64,0,4.5970068,0.000482298916,0
0.00628,0.00314,89.5478172,-89.51692,0.64,0,4.91592503,0.00049164921,0
0.00692,0.00346,97.4520106,-97.378944,0.64,0,5.23206139,0.000473283644,0
0.00756,0.00378,105.268992,-105.14103,1.28,0,5.55569839,0.000446719434,0
0.00884,0.00442,121.11798,-120.794049,1.28,0,6.05801773,0.000598468416,0
0.01012,0.00506,137.12499,-136.703184,1.28,0,6.59227204,0.000780046982,0
0.0114,0.0057,152.926739,-152.430139,1.28,0,7.13900971,0.000914225791,0
0.01268,0.00634,168.349853,-167.805613,1.28,0,7.63809085,0.000982727082,0
0.01396,0.00698,183.48665,-182.909342,1.28,0,8.1518023,0.000993645926,0
0.01524,0.00762,198.427078,-197.78267,2.56,0,8.66623592,0.000963320908,0
0.0178,0.0089,228.828764,-227.925877,2.56,0,9.5784719,0.00121090716,0
0.02036,0.01018,259.790811,-258.668046,2.56,0,10.4578161,0.00152865599,0
0.02292,0.01146,290.492872,-289.161795,2.56,0,11.3796108,0.0017843652,0
0.02548,0.01274,320.410584,-318.986711,2.56,0,12.320101,0.00193470702,0
0.02804,0.01402,349.672949,-348.091831,2.56,0,13.2156427,0.00197128949,0
0.0306,0.0153,378.503957,-376.81634,5,0,14.0456231,0.00193183109,0
0.0356,0.0178,435.801289,-433.79998,5,0,15.59375,0.00226772631,0
0.0406,0.0203,494.840149,-492.264871,5,0,17.1901696,0.00275515161,0
0.0456,0.0228,553.682705,-550.768944,5,0,18.7586391,0.00318637629,0
0.0506,0.0253,611.089573,-607.884387,5,0,20.2913997,0.00343472589,0
0.0556,0.0278,667.090216,-663.718695,5,0,21.7974699,0.00348539418,0
0.0606,0.0303,722.074217,-718.572436,5,0,23.2184935,0.00336010585,0
0.0656,0.0328,776.620416,-773.058573,5,0,24.7567959,0.00317159248,0
0.0706,0.0353,831.267906,-827.661265,5,0,26.2091384,0.00296109479,0
0.0756,0.0378,886.293784,-882.697463,5,0,27.6500566,0.00274713182,0
0.0806,0.0403,941.825485,-938.360035,5,0,29.0789793,0.00256981596,0
0.0856,0.0428,997.707942,-994.422663,5,0,30.5257983,0.00242269472,0
0.0906,0.0453,1053.86241,-1050.83739,5,0,31.9350598,0.00230357356,0
0.0956,0.0478,1110.06697,-1107.37789,5,0,33.6117339,0.00218701744,0
0.1006,0.0503,1166.22095,-1163.9814,5,0,35.1535611,0.00206858068,0
0.1056,0.0528,1222.21705,-1220.46077,5,0,36.7357163,0.00194045383,0
0.1106,0.0553,1278.02109,-1276.82486,5,0,38.3025885,0.00179149074,0
0.1156,0.0578,1333.64867,-1333.09983,5,0,39.8195279,0.00163277432,0
0.1206,0.0603,1389.04816,-1389.06107,5,0,41.2682023,0.00148235214,0
0.1256,0.0628,1444.24527,-1444.90747,5,0,42.6974032,0.00137314199,0
0.1306,0.0653,1499.14244,-1500.39299,5,0,44.1354403,0.00130235935,0
0.1356,0.0678,1553.84129,-1555.64484,5,0,45.6015549,0.00124034415,0
0.1406,0.0703,1608.20932,-1610.5681,5,0,46.9995008,0.00119864676,0
0.1456,0.0728,1662.34587,-1665.21898,5,0,48.3380504,0.00119439739,0
0.1506,0.0753,1716.13507,-1719.45042,5,0,49.7204375,0.00120589804,0
0.1556,0.0778,1769.55424,-1773.30428,5,0,51.0945268,0.00124334452,0
0.1606,0.0803,1822.56907,-1826.61603,5,0,52.3734777,0.00129062241,0
0.1656,0.0828,1875.08921,-1879.51278,5,0,53.7509418,0.00134343975,0
0.1706,0.0853,1927.093,-1931.75904,5,0,55.1461823,0.00139599219,0
0.1756,0.0878,1978.6138,-1983.48855,5,0,56.5275831,0.00143836049,0
0.1806,0.0903,2029.5508,-2034.59802,5,0,57.7952535,0.00146749449,0
0.1856,0.0928,2080.00251,-2085.15033,5,0,59.0702753,0.00148770002,0
0.1906,0.0953,2129.89256,-2135.15664,5,0,60.3900692,0.00149373326,0
0.1956,0.0978,2179.2942,-2184.48861,5,0,61.7366304,0.0014876993,0
0.2006,0.1003,2228.21761,-2233.33436,5,0,63.0225239,0.0014767248,0
0.2056,0.1028,2276.53228,-2281.54698,5,0,64.2971709,0.00144771958,0
0.2106,0.1053,2324.40592,-2329.23183,5,0,65.5171449,0.00140877371,0
0.2156,0.1078,2371.66778,-2376.38296,5,0,66.7271671,0.00136467631,0
0.2206,0.1103,2418.46871,-2422.88953,5,0,67.970243,0.0013177238,0
0.2256,0.1128,2464.76034,-2468.91783,5,0,69.2480614,0.00126071222,0
0.2306,0.1153,2510.55329,-2514.41825,5,0,70.4367459,0.00121879779,0
0.2356,0.1178,2555.83056,-2559.3752,5,0,71.6831658,0.00117208453,0
0.2406,0.1203,2600.57085,-2603.74122,5,0,72.9075537,0.00114748444,0
0.2456,0.1228,2644.85072,-2647.71329,5,0,74.01615,0.0011337641,0
0.2506,0.1253,2688.60716,-2691.11524,5,0,75.1446712,0.00113073014,0
0.2556,0.1278,2731.94955,-2734.0058,5,0,76.3026338,0.00112171051,0
0.2606,0.1303,2774.7676,-2776.50072,5,0,77.4306564,0.00111574129,0
0.2656,0.1328,2817.20898,-2818.55919,5,0,78.5309057,0.00111170723,0
0.2706,0.1353,2859.1705,-2860.24575,5,0,79.6527157,0.00110438224,0
0.2756,0.1378,2900.69525,-2901.41191,5,0,80.7455904,0.00110185334,0
0.2806,0.1403,2941.76473,-2942.14784,5,0,81.8239677,0.00110124872,0
0.2856,0.1428,2982.42304,-2982.49354,5,0,82.8762851,0.00110096201,0
0.2906,0.1453,3022.64814,-3022.48044,5,0,83.9772525,0.00110059849,0
0.2956,0.1478,3062.53058,-3062.04759,5,0,85.0372019,0.00109776548,0
0.3006,0.1503,3101.96204,-3101.31012,5,0,86.1199849,0.00109710497,0
0.3056,0.1528,3141.03146,-3140.19723,5,0,87.2462852,0.00109424975,0
0.3106,0.1553,3179.68348,-3178.69217,5,0,88.3302033,0.00109365748,0
0.3156,0.1578,3217.93963,-3216.93131,5,0,89.3854949,0.00109542367,0
0.3206,0.1603,3255.77318,-3254.70416,5,0,90.4467666,0.00110495072,0
0.3256,0.1628,3293.13415,-3292.08513,5,0,91.4741728,0.00113114279,0
0.3306,0.1653,3330.1466,-3329.18093,5,0,92.5244439,0.00112475495,0
0.3356,0.1678,3366.87458,-3365.99305,5,0,93.5627911,0.00109592557,0
0.3406,0.1703,3403.34947,-3402.50363,5,0,94.5525413,0.00105554803,0
0.3456,0.1728,3439.36951,-3438.71972,5,0,95.5954533,0.00102583062,0
0.3506,0.1753,3475.03187,-3474.55794,5,0,96.6006253,0.00101759767,0
0.3556,0.1778,3510.24028,-3510.06552,5,0,97.6127112,0.001026656,0
0.3606,0.1803,3544.97892,-3545.20919,5,0,98.6902432,0.00103332795,0
0.3656,0.1828,3579.39124,-3580.01615,5,0,99.7850599,0.00104032315,0
0.3706,0.1853,3613.39878,-3614.43146,5,0,100.838363,0.00104331228,0
0.3756,0.1878,3647.04544,-3648.56437,5,0,101.902273,0.00104037356,0
0.3806,0.1903,3680.3678,-3682.38435,5,0,102.957806,0.00103131595,0
0.3856,0.1928,3713.30575,-3715.84912,5,0,103.982061,0.00102500763,0
0.3906,0.1953,3745.97177,-3749.03455,5,0,104.998686,0.00102482319,0
0.3956,0.1978,3778.28707,-3781.87197,5,0,105.978874,0.00103115039,0
0.4006,0.2003,3810.26473,-3814.3458,5,0,107.055912,0.00103372597,0
0.4056,0.2028,3841.99391,-3846.60938,5,0,108.053991,0.00105675574,0
0.4106,0.2053,3873.42694,-3878.49144,5,0,109.098023,0.00108245738,0
0.4156,0.2078,3904.54309,-3910.07923,5,0,110.139465,0.00110703532,0
0.4206,0.2103,3935.38262,-3941.32364,5,0,111.144655,0.00112074595,0
0.4256,0.2128,3965.93744,-3972.19,5,0,112.168138,0.00112732858,0
0.4306,0.2153,3996.1583,-4002.77311,5,0,113.192456,0.00113115824,0
0.4356,0.2178,4026.13908,-4033.0047,5,0,114.234945,0.00112484713,0
0.4406,0.2203,4055.85977,-4062.94131,5,0,115.242375,0.00111538656,0
0.4456,0.2228,4085.24423,-4092.55617,5,0,116.20785,0.00111102209,0
0.4506,0.2253,4114.369,-4121.70204,5,0,117.213382,0.00110731799,0
0.4556,0.2278,4143.1771,-4150.60696,5,0,118.206468,0.00110657643,0
0.4606,0.2303,4171.7236,-4179.20284,5,0,119.180995,0.00111229654,0
0.4656,0.2328,4199.98725,-4207.44733,5,0,120.201503,0.00111562318,0
0.4706,0.2353,4228.01369,-4235.31731,5,0,121.18478,0.00112357557,0
0.4756,0.2378,4255.70548,-4262.95282,5,0,122.171586,0.00113676529,0
0.4806,0.2403,4283.2605,-4290.23823,5,0,123.114797,0.0011604309,0
0.4856,0.2428,4310.49376,-4317.26923,5,0,124.149488,0.00122266923,0
0.4906,0.2453,4337.5854,-4343.99113,5,0,125.219697,0.00131781039,0
0.4956,0.2478,4364.39361,-4370.4713,5,0,126.492053,0.00125119618,0
0.5,0.25,4387.78446,-4393.50368,5,0,127.435673,0.00112480511,0
