# ADR90 WP-A2 tau=0 band, build a6a53948ef316f7eb6662ea09f2e1fb52d2b607f (expected a6a53948ef316f7eb6662ea09f2e1fb52d2b607f), leg h1.0_e0.6944
s_m,s_over_B,q_foot_kPa,q_base_kPa,ds_mm,relaxed,wall_s,implex_err_avg,implex_refusals,guard_floor,guard_f0,guard_hold,guard_res,guard_ctlf
2e-05,1e-05,2.73884294,-0.563280637,0.02,0,0.0547575951,0.00226130872,0,0,0,0,0,0
4e-05,2e-05,2.29252108,-2.23779554,0.02,0,0.105614901,0.000317745841,0,0,0,0,1568,56
6e-05,3e-05,2.65288663,-2.71281232,0.02,0,0.195108652,0.000243204074,0,0,48,0,1568,22
8e-05,4e-05,3.09239236,-3.12256156,0.02,0,0.267819881,0.000181199521,0,0,22,0,1568,28
0.0001,5e-05,3.53149136,-3.54314106,0.02,0,0.336455584,0.000156371943,0,0,8,0,1568,6
0.00012,6e-05,3.95968371,-3.96532664,0.04,0,0.403865814,0.000153752689,0,0,4,0,1568,18
0.00016,8e-05,4.93004079,-4.94565218,0.04,0,0.495659351,0.000271865318,0,0,5,0,1568,59
0.0002,0.0001,5.76323151,-5.78131872,0.04,0,0.588733673,0.000310102364,0,0,0,0,1568,4
0.00024,0.00012,6.53903423,-6.54895224,0.04,0,0.689885855,0.000324649912,0,0,4,0,1568,11
0.00028,0.00014,7.27642969,-7.28633952,0.04,0,0.788624048,0.000340265597,0,0,4,0,1568,32
0.00032,0.00016,7.98055266,-7.99630898,0.04,0,0.89559865,0.000358960354,0,0,8,0,1568,52
0.00036,0.00018,8.67685583,-8.69611665,0.08,0,1.01761031,0.00036144542,0,0,12,0,1568,92
0.00044,0.00022,10.4142218,-10.4656158,0.08,0,1.15055108,0.000655730091,0,0,0,0,1568,220
0.00052,0.00026,11.8415437,-11.9236099,0.08,0,1.30121326,0.000741393093,0,0,0,0,1568,92
0.0006,0.0003,13.1756862,-13.2818155,0.08,0,1.46422672,0.000785096523,0,0,4,0,1568,108
0.00068,0.00034,14.4672719,-14.5985412,0.08,0,1.61582422,0.000827241967,0,0,4,0,1568,128
0.00076,0.00038,15.724569,-15.8774297,0.08,0,1.76409245,0.000857831099,0,0,0,0,1568,152
0.00084,0.00042,16.9585295,-17.1368089,0.16,0,1.92872882,0.000882107314,0,0,0,0,1568,152
0.001,0.0005,20.2535983,-20.5853601,0.16,0,2.19439363,0.0015556953,0,0,0,0,1568,348
0.00116,0.00058,22.8886535,-23.3372994,0.16,0,2.45672202,0.00172958537,0,0,0,0,1568,112
0.00132,0.00066,25.3536278,-25.9090773,0.16,0,2.68016124,0.00183483575,0,0,4,0,1568,144
0.00148,0.00074,27.7391711,-28.4039765,0.16,0,2.91133237,0.00190748742,0,0,0,0,1568,160
0.00164,0.00082,30.0657349,-30.7775317,0.16,0,3.15492892,0.00196392235,0,0,4,0,1568,180
0.0018,0.0009,32.3570748,-32.9009342,0.32,0,3.40208387,0.0019953448,0,0,4,0,1568,180
0.00196,0.00098,34.655218,-35.2296413,0.16,0,4.03158379,0.00209136447,24,0,16,0,11072,1491
0.00212,0.00106,36.9159603,-37.5549601,0.16,0,4.2717042,0.00208921545,24,0,4,0,1568,180
0.00228,0.00114,39.1641196,-39.8175031,0.16,0,4.50643229,0.00211149222,24,0,0,0,1568,184
0.00244,0.00122,41.3893413,-42.1072928,0.16,0,4.72962976,0.00213212683,24,0,0,0,1568,196
0.0026,0.0013,43.6008763,-44.3605499,0.16,0,4.94402575,0.00214942027,24,0,0,0,1568,200
0.00276,0.00138,45.8000946,-46.5948602,0.32,0,5.17547154,0.00216290519,24,0,0,0,1568,200
0.00292,0.00146,47.9858009,-48.8137264,0.16,0,5.79321647,0.00217316727,36,0,0,0,11072,1304
0.00308,0.00154,50.1613529,-51.0190229,0.16,0,6.04887319,0.00218298793,36,0,0,0,1568,200
0.00324,0.00162,52.3276316,-53.2100874,0.16,0,6.28478003,0.00219082023,36,0,0,0,1568,200
0.0034,0.0017,54.4828006,-55.3917023,0.16,0,6.51067019,0.0021994838,36,0,0,0,1568,200
0.00356,0.00178,56.631548,-57.5618292,0.16,0,6.74058461,0.00220454724,36,0,0,0,1568,200
0.00372,0.00186,58.7681192,-59.7239089,0.32,0,6.96810269,0.00221205205,36,0,0,0,1568,200
0.00388,0.00194,60.8944578,-61.8798227,0.16,0,7.536479,0.00222241319,48,0,0,0,11072,1364
0.00404,0.00202,63.0174523,-64.0282711,0.16,0,7.75016785,0.00223013387,48,0,0,0,1568,200
0.0042,0.0021,65.1313693,-66.169362,0.16,0,8.01810575,0.00223801277,48,0,0,0,1568,204
0.00436,0.00218,67.2395809,-68.3033978,0.16,0,8.37580085,0.00224530458,48,0,0,0,1568,208
0.00452,0.00226,69.3406389,-70.4304248,0.16,0,8.61884379,0.00225359181,48,0,0,0,1568,208
0.00468,0.00234,71.4360507,-72.5506638,0.32,0,8.86340523,0.00225931738,48,0,0,0,1568,208
0.00484,0.00242,73.5260008,-74.6638554,0.16,0,9.47604322,0.00226584058,60,0,0,0,11072,1462
0.005,0.0025,75.6088013,-76.7717753,0.16,0,9.70182586,0.00227103296,60,0,0,0,1568,208
0.00516,0.00258,77.6861665,-78.8792348,0.16,0,9.92148352,0.0022784279,60,0,0,0,1568,208
0.00532,0.00266,79.7579567,-80.9666509,0.16,0,10.1507795,0.00228273752,60,0,0,0,1568,208
0.00548,0.00274,81.8217908,-83.0493545,0.16,0,10.3772349,0.00228905935,60,0,0,0,1568,212
0.00564,0.00282,83.8800636,-85.1322724,0.32,0,10.5936615,0.00229212866,60,0,0,0,1568,212
0.0058,0.0029,85.9317038,-87.2127499,0.16,0,11.1519718,0.00229879804,72,0,0,0,11072,1514
0.00596,0.00298,87.9789255,-89.2882535,0.16,0,11.3682473,0.00230443378,72,0,0,0,1568,212
0.00612,0.00306,90.0225474,-91.3593304,0.16,0,11.626276,0.00230956449,72,0,0,0,1568,212
0.00628,0.00314,92.0619253,-93.4267781,0.16,0,11.8499165,0.00231533095,72,0,0,0,1568,212
0.00644,0.00322,94.0974867,-95.4894509,0.16,0,12.0700715,0.00232059908,72,0,0,0,1568,212
0.0066,0.0033,96.1296899,-97.548765,0.32,0,12.3144629,0.00232617938,72,0,0,0,1568,212
0.00676,0.00338,98.1579816,-99.6037061,0.16,0,12.8880675,0.00233098489,84,0,0,0,11072,1532
0.00692,0.00346,100.183393,-101.65529,0.16,0,13.1588535,0.00233600467,84,0,0,0,1568,212
0.00708,0.00354,102.191829,-103.715725,0.16,0,13.3788626,0.0023500715,84,0,0,0,1568,214
0.00724,0.00362,104.20933,-105.759668,0.16,0,13.6112306,0.00235431894,84,0,0,0,1568,212
0.0074,0.0037,106.224577,-107.799751,0.16,0,13.8319006,0.00235910831,84,0,0,0,1568,216
0.00756,0.00378,108.238661,-109.836648,0.32,0,14.0773914,0.00236292917,84,0,0,0,1568,216
0.00772,0.00386,110.24966,-111.870275,0.16,0,15.060884,0.00236597454,108,0,0,0,11072,1548
0.00788,0.00394,112.257919,-113.901135,0.16,0,15.3152049,0.00236994998,108,0,0,0,1568,216
0.00804,0.00402,114.263395,-115.92846,0.16,0,15.6094642,0.00237246699,108,0,0,0,1568,216
0.0082,0.0041,116.265383,-117.952934,0.16,0,15.9314373,0.00237616056,108,0,0,0,1568,216
0.00836,0.00418,118.265332,-119.974217,0.16,0,16.2037055,0.00237821481,108,0,0,0,1568,216
0.00852,0.00426,120.261331,-121.992209,0.32,0,16.4741344,0.00238182808,108,0,0,0,1568,216
0.00868,0.00434,122.255097,-124.007087,0.16,0,17.3954661,0.0023836785,120,0,0,0,11072,1608
0.00884,0.00442,124.245561,-126.019503,0.16,0,17.6329653,0.00238840218,120,0,0,0,1568,216
0.009,0.0045,126.234662,-128.028589,0.16,0,17.8623517,0.00238918886,120,0,0,0,1568,216
0.00916,0.00458,128.220646,-130.035384,0.16,0,18.09834,0.00239273914,120,0,0,0,1568,220
0.00932,0.00466,130.204622,-132.039598,0.16,0,18.3224261,0.00239363078,120,0,0,0,1568,220
0.00948,0.00474,132.185845,-134.040843,0.32,0,18.5709558,0.00239586616,120,0,0,0,1568,220
0.00964,0.00482,134.164904,-136.03996,0.16,0,19.5517006,0.00239825659,132,0,0,0,11072,1624
0.0098,0.0049,136.142189,-138.036445,0.16,0,19.8259735,0.00239950759,132,0,0,0,1568,220
0.00996,0.00498,138.117028,-140.03055,0.16,0,20.0574322,0.00240108759,132,0,0,0,1568,220
0.01012,0.00506,140.090039,-142.021322,0.16,0,20.2647257,0.00240156942,132,0,0,0,1568,220
0.01028,0.00514,142.060431,-144.00913,0.16,0,20.5055511,0.0024019908,132,0,0,0,1568,224
0.01044,0.00522,144.028568,-145.994839,0.32,0,20.7841167,0.00240347744,132,0,0,0,1568,224
0.0106,0.0053,145.995746,-147.979182,0.16,0,21.7537885,0.0024034606,144,0,0,0,11072,1646
0.01076,0.00538,147.961002,-149.961533,0.16,0,21.9936078,0.00240431946,144,0,0,0,1568,224
0.01092,0.00546,149.924564,-151.942091,0.16,0,22.2173283,0.00240439704,144,0,0,0,1568,224
0.01108,0.00554,151.885873,-153.920332,0.16,0,22.4760959,0.00240504384,144,0,0,0,1568,224
0.01124,0.00562,153.846138,-155.897066,0.16,0,22.7571609,0.0024056265,144,0,0,0,1568,224
0.0114,0.0057,155.804191,-157.871805,0.32,0,23.0164587,0.00240650204,144,0,0,0,1568,224
0.01172,0.00586,163.752464,-165.917407,0.32,0,23.3576944,0.00379294897,144,0,0,0,1568,478
0.01188,0.00594,162.872046,-165.47121,0.16,0,24.3632205,0.00298120374,156,0,32,0,11072,327
0.01204,0.00602,164.217388,-166.692573,0.16,0,24.6287203,0.00266028657,156,0,68,0,1568,340
0.0122,0.0061,166.009937,-168.419298,0.16,0,24.8945665,0.0025501067,156,0,12,0,1568,300
0.01236,0.00618,167.909798,-170.306409,0.16,0,25.1243665,0.00251201624,156,0,0,0,1568,280
0.01252,0.00626,169.845253,-172.244262,0.16,0,25.3760469,0.00249199137,156,0,0,0,1568,248
0.01268,0.00634,171.796456,-174.201946,0.32,0,25.6524014,0.00248001217,156,0,0,0,1568,248
0.013,0.0065,180.010067,-182.581541,0.32,0,25.9922247,0.00385490535,156,0,0,0,1568,524
0.01316,0.00658,179.037692,-182.024706,0.16,0,26.9620225,0.00306661684,168,0,32,0,11072,344
0.01332,0.00666,180.287062,-183.060329,0.16,0,27.223747,0.00272800878,168,0,16,0,1568,384
0.01348,0.00674,182.02152,-184.690819,0.16,0,27.4541187,0.00260168129,168,0,4,0,1568,316
0.01364,0.00682,183.879611,-186.512928,0.16,0,27.6943364,0.00255165273,168,0,4,0,1568,292
0.0138,0.0069,185.78588,-188.408964,0.16,0,27.9109495,0.00252326916,168,0,0,0,1568,268
0.01396,0.00698,187.718496,-190.336195,0.32,0,28.1469841,0.00250670375,168,0,0,0,1568,252
0.01428,0.00714,196.099581,-198.88086,0.32,0,28.4625349,0.00386587698,168,0,0,0,1568,540
0.0146,0.0073,201.371853,-204.764634,0.32,0,28.8194091,0.00427564995,168,0,8,0,1568,108
0.01492,0.00746,206.639815,-210.240217,0.32,1,29.6673894,0.00417607255,176,0,0,0,7904,543
0.01508,0.00754,204.187104,-208.076668,0.16,0,30.6546149,0.00354092645,188,0,16,0,11072,652
0.01524,0.00762,204.977674,-208.407151,0.16,0,30.9043381,0.00301328215,188,0,64,0,1568,596
0.0154,0.0077,206.506828,-209.705632,0.16,0,31.1202364,0.00280295877,188,0,44,0,1568,352
0.01556,0.00778,208.258938,-211.38516,0.16,0,31.3503618,0.00269981172,188,0,0,0,1568,308
0.01572,0.00786,210.110563,-213.201924,0.16,0,31.5768557,0.00263727463,188,0,0,0,1568,284
0.01588,0.00794,212.021274,-215.086252,0.32,0,31.7897887,0.00260035383,188,0,0,0,1568,284
0.0162,0.0081,220.787712,-224.042355,0.32,0,32.1253941,0.00392705907,188,0,0,0,1568,568
0.01652,0.00826,226.278774,-230.225206,0.32,0,32.4687815,0.00434567191,188,0,8,0,1568,112
0.01684,0.00842,231.072603,-235.38045,0.32,0,32.8465793,0.00450689767,188,0,0,0,1568,200
0.01716,0.00858,235.664328,-240.166585,0.32,0,33.2329586,0.0046120238,188,0,0,0,1568,250
0.01748,0.00874,241.129632,-245.57127,0.32,1,34.1051371,0.00427748189,196,0,0,0,7904,804
0.0178,0.0089,245.835089,-250.475847,0.64,1,35.0545156,0.00437447943,204,0,0,0,7904,666
0.01796,0.00898,242.316562,-247.182539,0.16,0,36.7773948,0.00390493396,228,0,0,0,20576,2333
0.01812,0.00906,242.538472,-246.802774,0.16,0,37.0759096,0.00328285853,228,0,64,0,1568,777
0.01828,0.00914,243.766051,-247.741206,0.16,0,37.355334,0.00299210791,228,0,32,0,1568,404
0.01844,0.00922,245.346722,-249.187403,0.16,0,37.6113269,0.00284689407,228,0,4,0,1568,344
0.0186,0.0093,247.086005,-250.843946,0.16,0,37.8817325,0.00274841584,228,0,0,0,1568,304
0.01876,0.00938,248.907903,-252.605156,0.32,0,38.1498847,0.00268196007,228,0,4,0,1568,284
0.01908,0.00954,258.066432,-261.928605,0.32,0,38.4927504,0.00395457629,228,0,0,0,1568,576
0.0194,0.0097,263.642681,-268.262302,0.32,0,38.8370447,0.00436107432,228,0,16,0,1568,108
0.01972,0.00986,268.476851,-273.469815,0.32,0,39.2552471,0.00450705079,228,0,4,0,1568,192
0.02004,0.01002,273.136772,-278.307266,0.32,0,39.6700592,0.00460926085,228,0,0,0,1568,252
0.02036,0.01018,277.663994,-282.963726,0.32,0,40.1050234,0.00467208582,228,0,0,0,1568,276
0.02068,0.01034,282.084054,-287.508768,0.64,0,40.4598138,0.00471384817,228,0,0,0,1568,284
0.021,0.0105,286.424253,-291.969979,0.32,0,41.2634394,0.00474362732,240,0,0,0,11072,2168
0.02132,0.01066,290.709689,-296.367454,0.32,0,41.6009879,0.00476427703,240,0,0,0,1568,292
0.02164,0.01082,294.953896,-300.714554,0.32,0,41.9577479,0.00477625155,240,0,0,0,1568,288
0.02196,0.01098,299.168102,-305.024645,0.32,0,42.2840662,0.00478540732,240,0,0,0,1568,292
0.02228,0.01114,303.359035,-309.303892,0.32,0,42.627527,0.00478970175,240,0,0,0,1568,294
0.0226,0.0113,307.532599,-313.559532,0.64,0,42.9434779,0.00479245294,240,0,0,0,1568,292
0.02276,0.01138,304.225989,-310.264777,0.16,0,43.9799721,0.00396544338,264,0,0,0,20576,2808
0.02292,0.01146,304.375529,-309.673964,0.16,0,44.2332869,0.00339096039,264,0,124,0,1568,676
0.02308,0.01154,305.476389,-310.46216,0.16,0,44.4753718,0.00310556896,264,0,112,0,1568,412
0.02324,0.01162,306.959065,-311.77069,0.16,0,44.7272797,0.00295112438,264,0,4,0,1568,366
0.0234,0.0117,308.621057,-313.315719,0.16,0,44.9556675,0.0028429863,264,0,4,0,1568,304
0.02356,0.01178,310.379963,-314.984666,0.32,0,45.1734049,0.00276340425,264,0,0,0,1568,300
0.02372,0.01186,312.201432,-316.731975,0.16,0,45.6700132,0.00270502067,276,0,0,0,11072,2151
0.02388,0.01194,314.070151,-318.537032,0.16,0,45.8796883,0.00266222298,276,0,0,0,1568,292
0.02404,0.01202,315.974001,-320.385859,0.16,0,46.1129768,0.00263074136,276,0,0,0,1568,292
0.0242,0.0121,317.904272,-322.267988,0.16,0,46.34973,0.00260852848,276,0,0,0,1568,292
0.02436,0.01218,319.854402,-324.174543,0.16,0,46.5807681,0.0025943036,276,0,4,0,1568,289
0.02452,0.01226,321.820533,-326.101615,0.32,0,46.7930925,0.00258202596,276,0,4,0,1568,291
0.02484,0.01242,331.714434,-336.239624,0.32,0,47.0797658,0.00379842165,276,0,0,0,1568,592
0.02516,0.01258,337.786616,-343.201268,0.32,0,47.3930075,0.00425336385,276,0,12,0,1568,96
0.02548,0.01274,343.002582,-348.835652,0.32,0,47.7006974,0.0044411461,276,0,0,0,1568,196
0.02564,0.01282,340.241787,-345.930911,0.16,0,48.2759175,0.00366478035,288,0,0,0,11072,876
0.0258,0.0129,340.636052,-345.662473,0.16,0,48.5234642,0.003169979,288,0,128,0,1568,583
0.02596,0.01298,341.875194,-346.607294,0.16,0,48.7564976,0.00292276212,288,0,56,0,1568,432
0.02612,0.01306,343.430565,-348.029307,0.16,0,48.9692874,0.00279303979,288,0,4,0,1568,388
0.02628,0.01314,345.140647,-349.664261,0.16,0,49.1702285,0.00270716018,288,0,0,0,1568,327
0.02644,0.01322,346.939365,-351.405861,0.32,0,49.3707862,0.0026513621,288,0,0,0,1568,316
0.02676,0.01338,356.973557,-361.648806,0.32,0,49.6858785,0.00385029789,288,0,0,0,1568,644
0.02708,0.01354,363.022366,-368.576907,0.32,0,49.9814465,0.00427249127,288,0,12,0,1568,104
0.0274,0.0137,368.177473,-374.151642,0.32,0,50.3111093,0.00443244583,288,0,4,0,1568,188
0.02772,0.01386,373.108711,-379.272854,0.32,0,50.6167045,0.00455117195,288,0,0,0,1568,264
0.02804,0.01402,377.864925,-384.159236,0.32,0,50.915242,0.00462263685,288,0,0,0,1568,284
0.02836,0.01418,382.475492,-388.896079,0.64,0,51.2384202,0.00466912073,288,0,0,0,1568,296
0.02868,0.01434,386.982947,-393.52491,0.32,0,51.9954796,0.0047017209,300,0,0,0,11072,2293
0.029,0.0145,391.412731,-398.070116,0.32,0,52.2984066,0.00472307663,300,0,0,0,1568,292
0.02916,0.01458,387.665176,-394.162537,0.16,0,52.854239,0.00393775198,312,0,0,0,11080,948
0.02932,0.01466,387.499739,-393.264571,0.16,0,53.0998628,0.00339034898,312,0,197,0,1568,746
0.02948,0.01474,388.387899,-393.813641,0.16,0,53.3488455,0.00308586038,312,0,74,0,1568,455
0.02964,0.01482,389.727484,-394.971552,0.16,0,53.5658829,0.00292213435,312,0,16,0,1568,396
0.0298,0.0149,391.29426,-396.420915,0.16,0,53.7900305,0.00280899962,312,0,4,0,1568,336
0.02996,0.01498,392.985067,-398.018917,0.32,0,54.0214331,0.00272533002,312,0,4,0,1568,308
0.03028,0.01514,403.437612,-408.599746,0.32,0,54.2927961,0.00384302424,312,0,4,0,1568,668
0.0306,0.0153,409.664174,-415.723207,0.32,0,54.5805857,0.00428311814,312,0,12,0,1568,104
0.03092,0.01546,414.876134,-421.373755,0.32,0,54.87819,0.00442016138,312,0,8,0,1568,188
0.03124,0.01562,419.863359,-426.53656,0.32,0,55.1942921,0.00452101814,312,0,0,0,1568,272
0.03156,0.01578,424.678744,-431.464436,0.32,0,55.5066719,0.00459806292,312,0,0,0,1568,288
0.03188,0.01594,429.347755,-436.239731,0.64,0,55.8295712,0.00464322805,312,0,0,0,1568,300
0.0322,0.0161,433.906801,-440.902823,0.32,0,56.5970154,0.00467195974,324,0,0,0,11072,2338
0.03252,0.01626,438.384044,-445.481252,0.32,0,56.9071138,0.00469220712,324,0,0,0,1568,309
0.03284,0.01642,442.800876,-449.991348,0.32,0,57.2347052,0.00470526114,324,0,0,0,1568,304
0.03316,0.01658,447.172859,-454.45044,0.32,0,57.5467887,0.00471395893,324,0,0,0,1568,306
0.03348,0.01674,451.510787,-458.867921,0.32,0,57.8511233,0.00471885745,324,0,0,0,1568,308
0.0338,0.0169,455.820309,-463.251559,0.64,0,58.1701517,0.00472079141,324,0,0,0,1568,311
0.03412,0.01706,460.110097,-467.60878,0.32,0,58.966002,0.00471981626,336,0,0,0,11072,2363
0.03444,0.01722,464.382187,-471.945784,0.32,0,59.2802672,0.00471785485,336,0,0,0,1568,308
0.03476,0.01738,468.640299,-476.262104,0.32,0,59.6239414,0.00471315462,336,0,0,0,1568,310
0.03508,0.01754,472.886219,-480.565028,0.32,0,59.947139,0.00470835458,336,0,0,0,1568,308
0.0354,0.0177,477.120953,-484.852292,0.32,0,60.2761045,0.00470263245,336,0,0,0,1568,309
0.03572,0.01786,481.347361,-489.128992,0.64,0,60.5805931,0.00469748844,336,0,0,0,1568,309
0.03604,0.01802,485.565291,-493.394352,0.32,0,61.2780623,0.00469084246,348,0,0,0,11072,2361
0.03636,0.01818,489.77567,-497.648997,0.32,0,61.5869071,0.00468526518,348,0,0,0,1568,310
0.03668,0.01834,493.979917,-501.896258,0.32,0,61.9236963,0.00467892567,348,0,0,0,1568,308
0.037,0.0185,498.177262,-506.133955,0.32,0,62.2522473,0.004671953,348,0,0,0,1568,309
0.03732,0.01866,502.369777,-510.365403,0.32,0,62.6192605,0.0046656465,348,0,0,0,1568,308
0.03764,0.01882,506.556845,-514.589048,0.64,0,62.9630911,0.00465940216,348,0,0,0,1568,310
0.03796,0.01898,510.739227,-518.806686,0.32,0,63.7258675,0.00465325888,360,0,0,0,11072,2354
0.03828,0.01914,514.916579,-523.017737,0.32,0,64.0353792,0.00464693063,360,0,0,0,1568,309
0.0386,0.0193,519.09027,-527.223017,0.32,0,64.369211,0.00464035522,360,0,0,0,1568,308
0.03892,0.01946,523.259637,-531.423837,0.32,0,64.6829762,0.00463381413,360,0,0,0,1568,307
0.03924,0.01962,527.426241,-535.61887,0.32,0,64.9918001,0.00462715454,360,0,0,0,1568,307
0.03956,0.01978,531.587722,-539.809525,0.64,0,65.2968221,0.00462095637,360,0,0,0,1568,300
0.03988,0.01994,535.746718,-543.995738,0.32,0,66.0566156,0.00461391526,372,0,0,0,11072,2340
0.0402,0.0201,539.902322,-548.177627,0.32,0,66.3944511,0.00460778105,372,0,0,0,1568,301
0.04052,0.02026,544.055328,-552.355375,0.32,0,66.7255025,0.00460132667,372,0,0,0,1568,301
0.04084,0.02042,548.204996,-556.529881,0.32,0,67.0285237,0.00459384045,372,0,0,0,1568,300
0.04116,0.02058,552.351736,-560.700356,0.32,0,67.3462441,0.00458752308,372,0,0,0,1568,300
0.04148,0.02074,556.495614,-564.867053,0.64,0,67.6672873,0.00458175053,372,0,0,0,1568,302
0.0418,0.0209,560.63718,-569.029968,0.32,0,68.4800029,0.00457494256,384,0,0,0,11072,2347
0.04212,0.02106,564.775202,-573.190874,0.32,0,68.7877889,0.00456893222,384,0,0,0,1568,300
0.04244,0.02122,568.912151,-577.3479,0.32,0,69.1106975,0.00456294061,384,0,0,0,1568,300
0.04276,0.02138,573.045446,-581.501788,0.32,0,69.4275994,0.00455717623,384,0,0,0,1568,300
0.04308,0.02154,577.17668,-585.653053,0.32,0,69.7516611,0.00455095011,384,0,0,0,1568,300
0.0434,0.0217,581.306205,-589.801095,0.64,0,70.0356174,0.00454504754,384,0,0,0,1568,301
0.04372,0.02186,585.433071,-593.947528,0.32,0,70.7525628,0.00453880013,396,0,0,0,11072,2355
0.04404,0.02202,589.557971,-598.08976,0.32,0,71.0791245,0.00453286876,396,0,0,0,1568,302
0.04436,0.02218,593.680145,-602.230595,0.32,0,71.3631685,0.00452701049,396,0,0,0,1568,301
0.04468,0.02234,597.800771,-606.368808,0.32,0,71.6685808,0.00452127757,396,0,0,0,1568,301
0.045,0.0225,601.919358,-610.503743,0.32,0,71.9870298,0.0045155485,396,0,0,0,1568,300
0.04532,0.02266,606.035808,-614.638099,0.64,0,72.2795765,0.00451003108,396,0,0,0,1568,300
0.04564,0.02282,610.150701,-618.768139,0.32,0,72.9984126,0.00450449496,408,0,0,0,11072,2380
0.04596,0.02298,614.263779,-622.897789,0.32,0,73.3486018,0.00449901495,408,0,0,0,1568,302
0.04628,0.02314,618.152018,-627.182371,0.32,0,73.6447029,0.00454331849,408,0,0,0,1568,302
0.0466,0.0233,622.285272,-631.35881,0.32,0,73.9524734,0.00452045369,408,0,0,0,1568,299
0.04692,0.02346,626.387533,-635.506061,0.32,0,74.2480822,0.00451968934,408,0,0,0,1568,301
0.04724,0.02362,630.50225,-639.642485,0.64,0,74.5638287,0.00451290147,408,0,0,0,1568,303
0.04756,0.02378,634.623144,-643.776813,0.32,0,75.2721882,0.00450597971,420,0,0,0,11072,2365
0.04788,0.02394,638.744627,-647.911586,0.32,0,75.6157086,0.00450130094,420,0,0,0,1568,304
0.0482,0.0241,642.865467,-652.046236,0.32,0,75.9224014,0.00449410587,420,0,0,0,1568,305
0.04852,0.02426,646.983842,-656.180328,0.32,0,76.2602935,0.00448842172,420,0,0,0,1568,306
0.04884,0.02442,651.100868,-660.311152,0.32,0,76.5522332,0.00448227642,420,0,0,0,1568,304
0.04916,0.02458,655.214314,-664.441492,0.64,0,76.8714435,0.00447757066,420,0,0,0,1568,306
0.04948,0.02474,659.326701,-668.567638,0.32,0,78.1278312,0.00447159484,432,0,0,0,11072,2395
0.0498,0.0249,663.435715,-672.692213,0.32,0,78.458806,0.00446735649,432,0,0,0,1568,306
0.05012,0.02506,667.542794,-676.813697,0.32,0,78.7637918,0.00446111863,432,0,0,0,1568,305
0.05044,0.02522,671.647155,-680.933049,0.32,0,79.0531311,0.00445642984,432,0,0,0,1568,305
0.05076,0.02538,675.749523,-685.049155,0.32,0,79.4027057,0.00445027606,432,0,0,0,1568,305
0.05108,0.02554,679.850526,-689.164418,0.64,0,79.69313,0.0044450875,432,0,0,0,1568,305
0.0514,0.0257,683.948147,-693.276419,0.32,0,80.8685198,0.00443999841,444,0,0,0,11072,2397
0.05172,0.02586,688.044773,-697.386775,0.32,0,81.1532791,0.00443530695,444,0,0,0,1568,306
0.05204,0.02602,692.138555,-701.494027,0.32,0,81.4563742,0.00443014723,444,0,0,0,1568,306
0.05236,0.02618,696.231751,-705.600841,0.32,0,81.7833691,0.00442491487,444,0,0,0,1568,305
0.05268,0.02634,700.322517,-709.705047,0.32,0,82.0666771,0.00441999611,444,0,0,0,1568,305
0.053,0.0265,704.41128,-713.806679,0.64,0,82.3984301,0.00441494308,444,0,0,0,1568,308
0.05332,0.02666,708.498272,-717.907503,0.32,0,83.5305009,0.00440992144,456,0,0,0,11072,2400
0.05364,0.02682,712.583964,-722.005933,0.32,0,83.845742,0.0044053409,456,0,0,0,1568,305
0.05396,0.02698,716.667333,-726.102675,0.32,0,84.1776152,0.00440002872,456,0,0,0,1568,305
0.05428,0.02714,720.749863,-730.197378,0.32,0,84.4668398,0.00439585886,456,0,0,0,1568,306
0.0546,0.0273,724.830617,-734.291447,0.32,0,84.7874074,0.00439034959,456,0,0,0,1568,305
0.05492,0.02746,728.909376,-738.382756,0.64,0,85.0916719,0.00438618753,456,0,0,0,1568,311
0.05524,0.02762,732.986715,-742.472201,0.32,0,86.2039926,0.00438054447,468,0,0,0,11072,2410
0.05556,0.02778,737.062578,-746.561468,0.32,0,86.5334599,0.00437622637,468,0,0,0,1568,309
0.05588,0.02794,741.137048,-750.647375,0.32,0,86.8430362,0.00437104514,468,0,0,0,1568,308
0.0562,0.0281,745.209955,-754.732868,0.32,0,87.137593,0.00436673711,468,0,0,0,1568,312
0.05652,0.02826,749.280756,-758.816577,0.32,0,87.4819272,0.00436193231,468,0,0,0,1568,309
0.05684,0.02842,753.35094,-762.898502,0.64,0,87.8030531,0.00435743867,468,0,0,0,1568,312
0.05716,0.02858,757.419375,-766.978864,0.32,0,88.9583735,0.00435219744,480,0,0,0,11072,2398
0.05748,0.02874,761.486123,-771.057789,0.32,0,89.2607105,0.00434772033,480,0,0,0,1568,311
0.0578,0.0289,765.551773,-775.135921,0.32,0,89.5829103,0.0043429687,480,0,0,0,1568,309
0.05812,0.02906,769.615878,-779.211446,0.32,0,89.9111972,0.00433836711,480,0,0,0,1568,312
0.05844,0.02922,773.678586,-783.286453,0.32,0,90.2016397,0.00433370193,480,0,0,0,1568,310
0.05876,0.02938,777.7402,-787.359696,0.64,0,90.4989164,0.00432948242,480,0,0,0,1568,313
0.0594,0.0297,802.370856,-811.743782,0.64,0,90.8991356,0.00638483265,480,0,0,0,1568,706
0.05972,0.02986,797.361138,-808.571697,0.32,0,92.1359828,0.00558809489,492,0,64,0,11072,336
0.06004,0.03002,798.267298,-809.03022,0.32,0,92.4423974,0.00493195377,492,0,4,0,1568,420
0.06036,0.03018,801.142906,-811.427606,0.32,0,92.7687731,0.00466026419,492,0,4,0,1568,402
0.06068,0.03034,804.531763,-814.583518,0.32,0,93.0788693,0.00450919427,492,0,4,0,1568,357
0.061,0.0305,808.149093,-818.114509,0.32,0,93.3890796,0.00443772515,492,0,0,0,1568,344
0.06132,0.03066,811.866269,-821.829373,0.64,0,93.7263255,0.00439435423,492,0,0,0,1568,331
0.06196,0.03098,836.703311,-846.303891,0.64,0,94.1644475,0.00645318807,492,0,0,0,1568,720
0.06228,0.03114,831.201281,-842.765041,0.32,0,95.4407504,0.00560024548,504,0,96,0,11072,339
0.0626,0.0313,831.808282,-842.928488,0.32,0,95.78688,0.00492855141,504,0,4,0,1568,413
0.06292,0.03146,834.503352,-845.141053,0.32,0,96.0613482,0.00465058033,504,0,4,0,1568,417
0.06324,0.03162,837.776399,-848.159501,0.32,0,96.353642,0.0044941093,504,0,1,0,1568,358
0.06356,0.03178,841.309326,-851.584988,0.32,0,96.663753,0.00441730572,504,0,0,0,1568,344
0.06388,0.03194,844.95712,-855.214775,0.64,0,96.9771619,0.00437101036,504,0,0,0,1568,325
0.06452,0.03226,870.086994,-879.901632,0.64,0,97.4084969,0.00642436607,504,0,0,0,1568,721
0.06484,0.03242,864.362203,-876.189549,0.32,0,98.6758261,0.00558019212,516,0,96,0,11072,342
0.06516,0.03258,864.819233,-876.207622,0.32,0,98.9967799,0.00490623181,516,0,8,0,1568,407
0.06548,0.03274,867.428617,-878.338857,0.32,0,99.2727394,0.00462525981,516,0,0,0,1568,409
0.0658,0.0329,870.641917,-881.290561,0.32,0,99.5649285,0.0044674074,516,0,0,0,1568,357
0.06612,0.03306,874.130749,-884.660723,0.32,0,99.8615377,0.00438971721,516,0,0,0,1568,346
0.06644,0.03322,877.741072,-888.23999,0.64,0,100.16964,0.00434314862,516,0,0,0,1568,331
0.06708,0.03354,903.159653,-913.154037,0.64,0,100.554125,0.00637787242,516,0,0,0,1568,729
0.0674,0.0337,897.259258,-909.296218,0.32,0,101.765532,0.00555056878,528,0,96,0,11072,324
0.06772,0.03386,897.601198,-909.207204,0.32,0,102.07835,0.00487873209,528,0,12,0,1568,408
0.06804,0.03402,900.141303,-911.278441,0.32,0,102.391928,0.00459729544,528,0,0,0,1568,413
0.06836,0.03418,903.306986,-914.181526,0.32,0,102.68309,0.00443862905,528,0,0,0,1568,364
0.06868,0.03434,906.764098,-917.509269,0.32,0,102.983098,0.00435925715,528,0,0,0,1568,345
0.069,0.0345,910.345768,-921.052111,0.64,0,103.264251,0.00431333038,528,0,0,0,1568,329
0.06964,0.03482,936.044853,-946.19208,0.64,0,103.667198,0.00632512883,528,0,0,0,1568,734
0.07028,0.03514,951.284692,-963.418227,0.64,0,104.074849,0.00699411463,528,0,24,0,1568,100
0.0706,0.0353,942.36519,-955.908244,0.32,0,105.323893,0.00590412588,540,0,0,0,11072,613
0.07092,0.03546,941.601625,-954.013397,0.32,0,105.633656,0.00518073783,540,0,56,0,1568,587
0.07124,0.03562,943.399598,-955.055149,0.32,0,105.976332,0.00477927643,540,0,64,0,1568,464
0.07156,0.03578,946.066016,-957.444671,0.32,0,106.276352,0.00455914273,540,0,32,0,1568,404
0.07188,0.03594,949.160599,-960.422448,0.32,0,106.582364,0.00444964038,540,0,0,0,1568,362
0.0722,0.0361,952.465789,-963.675309,0.64,0,106.91959,0.00438160449,540,0,0,0,1568,340
0.07252,0.03626,955.905463,-967.079909,0.32,0,107.633726,0.00432613418,552,0,16,0,11072,2648
0.07284,0.03642,959.445197,-970.591699,0.32,0,107.937804,0.00428272346,552,0,0,0,1568,334
0.07316,0.03658,963.071316,-974.195377,0.32,0,108.275577,0.00424877697,552,0,0,0,1568,329
0.07348,0.03674,966.771054,-977.869673,0.32,0,108.545402,0.00422286062,552,0,0,0,1568,322
0.0738,0.0369,970.528222,-981.601805,0.32,0,108.830716,0.00420222676,552,0,0,0,1568,321
0.07412,0.03706,974.32521,-985.373487,0.64,0,109.10441,0.00418538977,552,0,0,0,1568,316
0.07476,0.03738,1000.72282,-1011.47016,0.64,0,109.492057,0.00613968761,552,0,0,0,1568,736
0.0754,0.0377,1016.54989,-1029.16186,0.64,0,109.900774,0.00685128353,552,0,24,0,1568,96
0.07604,0.03802,1029.26013,-1042.95621,0.64,0,110.332239,0.00707658937,552,0,4,0,1568,174
0.07668,0.03834,1041.03769,-1055.26964,0.64,0,110.777598,0.00729279145,552,0,4,0,1568,231
0.07732,0.03866,1054.7153,-1068.79028,0.64,1,111.862745,0.00688329737,560,0,12,0,7904,765
0.07764,0.03882,1041.73506,-1056.85842,0.32,0,113.142748,0.00646835505,572,0,0,0,11072,704
0.07796,0.03898,1038.3423,-1052.02839,0.32,0,113.510006,0.00562481017,572,0,100,0,1568,978
0.07828,0.03914,1038.47197,-1051.3859,0.32,0,113.830842,0.00507184878,572,0,160,0,1568,508
0.0786,0.0393,1039.99167,-1052.62843,0.32,0,114.149962,0.00478888697,572,0,8,0,1568,442
0.07892,0.03946,1042.34036,-1054.83417,0.32,0,114.453699,0.00462462021,572,0,4,0,1568,396
0.07924,0.03962,1045.13451,-1057.54255,0.64,0,114.743955,0.0045090254,572,0,4,0,1568,358
0.07956,0.03978,1048.19775,-1060.5294,0.32,0,115.424487,0.00442706265,584,0,16,0,11072,2772
0.07988,0.03994,1051.4315,-1063.68921,0.32,0,115.737861,0.0043630964,584,0,0,0,1568,338
0.0802,0.0401,1054.78932,-1066.98098,0.32,0,116.039988,0.00431026258,584,0,0,0,1568,342
0.08052,0.04026,1058.25807,-1070.38761,0.32,0,116.345942,0.00426700757,584,0,0,0,1568,332
0.08084,0.04042,1061.81546,-1073.8898,0.32,0,116.646532,0.00423161741,584,0,0,0,1568,327
0.08116,0.04058,1065.45087,-1077.474,0.64,0,116.935261,0.00420283982,584,0,0,0,1568,328
0.08148,0.04074,1069.14197,-1081.11955,0.32,0,117.602095,0.00417923662,596,0,0,0,11072,2572
0.0818,0.0409,1072.8788,-1084.81535,0.32,0,117.899994,0.00415974375,596,0,0,0,1568,327
0.08212,0.04106,1076.65112,-1088.54946,0.32,0,118.160605,0.0041428085,596,0,0,0,1568,330
0.08244,0.04122,1080.45153,-1092.31535,0.32,0,118.464559,0.00412859762,596,0,8,0,1568,325
0.08276,0.04138,1084.27518,-1096.10632,0.32,0,118.75714,0.00411634037,596,0,4,0,1568,323
0.08308,0.04154,1088.11818,-1099.91818,0.64,0,119.04973,0.00410595026,596,0,4,0,1568,321
0.0834,0.0417,1091.97585,-1103.74808,0.32,0,119.726079,0.00409666361,608,0,0,0,11072,2560
0.08372,0.04186,1095.8487,-1107.59448,0.32,0,120.053669,0.00408909735,608,0,4,0,1568,320
0.08404,0.04202,1099.73155,-1111.45297,0.32,0,120.349722,0.00408211618,608,0,0,0,1568,326
0.08436,0.04218,1103.62529,-1115.32367,0.32,0,120.634197,0.00407550068,608,0,0,0,1568,318
0.08468,0.04234,1107.52628,-1119.20314,0.32,0,120.940343,0.00406996626,608,0,0,0,1568,322
0.085,0.0425,1111.43606,-1123.09264,0.64,0,121.203527,0.00406374163,608,0,0,0,1568,317
0.08564,0.04282,1139.23556,-1150.47648,0.64,0,121.61473,0.00593432435,608,0,0,0,1568,740
0.08628,0.04314,1156.23209,-1169.56425,0.64,0,122.003193,0.00668374656,608,0,28,0,1568,81
0.08692,0.04346,1169.86996,-1184.44099,0.64,0,122.436732,0.00695683441,608,0,4,0,1568,159
0.08756,0.04378,1182.28368,-1197.39708,0.64,0,122.888257,0.00719085873,608,0,0,0,1568,224
0.0882,0.0441,1193.8155,-1209.25642,0.64,0,123.322743,0.0073623624,608,0,4,0,1568,257
0.08884,0.04442,1204.70039,-1220.42562,1.28,0,123.742626,0.00746213313,608,0,0,0,1568,275
0.08948,0.04474,1215.09477,-1231.11972,0.64,0,124.75526,0.00753086086,632,0,16,0,11072,2811
0.09012,0.04506,1225.13025,-1241.46135,0.64,0,125.200461,0.00758171396,632,0,0,0,1568,307
0.09076,0.04538,1234.88928,-1251.52874,0.64,0,125.620798,0.00762139531,632,0,0,0,1568,311
0.0914,0.0457,1244.44854,-1261.37786,0.64,0,126.045332,0.00765250865,632,0,0,0,1568,320
0.09204,0.04602,1253.83569,-1271.05268,0.64,0,126.510109,0.0076745139,632,0,0,0,1568,321
0.09268,0.04634,1263.09356,-1280.57995,1.28,0,126.958333,0.00769095049,632,0,0,0,1568,318
0.09332,0.04666,1272.23913,-1289.99042,0.64,0,128.004335,0.0077019408,668,0,0,0,11072,2840
0.09396,0.04698,1281.29766,-1299.29782,0.64,0,128.42999,0.00770875715,668,0,0,0,1568,321
0.0946,0.0473,1290.27633,-1308.52212,0.64,0,128.875711,0.00771235871,668,0,0,0,1568,317
0.09524,0.04762,1299.19158,-1317.67047,0.64,0,129.347995,0.00771277424,668,0,0,0,1568,314
0.09556,0.04778,1283.56489,-1302.43689,0.32,0,130.158852,0.00674909678,680,0,0,0,11072,1002
0.09588,0.04794,1277.91761,-1295.16116,0.32,0,130.522002,0.00595814321,680,0,188,0,1568,1083
0.0962,0.0481,1276.28714,-1292.70967,0.32,0,130.841009,0.00535985991,680,0,76,0,1568,593
0.09652,0.04826,1276.4764,-1292.49158,0.32,0,131.134521,0.00503597132,680,0,68,0,1568,504
0.09684,0.04842,1277.82837,-1293.58824,0.32,0,131.441969,0.00482057038,680,0,20,0,1568,430
0.09716,0.04858,1279.86847,-1295.44563,0.64,0,131.77053,0.00467755967,680,0,4,0,1568,392
0.0978,0.0489,1309.08822,-1324.26837,0.64,0,132.16014,0.00601907918,680,0,0,0,1568,868
0.09812,0.04906,1301.45874,-1318.48333,0.32,0,132.865575,0.00561286758,692,0,96,0,11072,396
0.09844,0.04922,1299.61895,-1316.06666,0.32,0,133.158608,0.00503252582,692,0,196,0,1568,440
0.09876,0.04938,1300.49907,-1316.31592,0.32,0,133.44094,0.00468603914,692,0,44,0,1568,478
0.09908,0.04954,1302.43606,-1317.90646,0.32,0,133.735436,0.00449529932,692,0,6,0,1568,429
0.0994,0.0497,1304.99615,-1320.25623,0.32,0,134.017525,0.00440204966,692,0,0,0,1568,385
0.09972,0.04986,1307.92311,-1323.04266,0.64,0,134.328913,0.00432277806,692,0,4,0,1568,376
0.10036,0.05018,1337.60265,-1352.27357,0.64,0,134.667407,0.00568717329,692,0,5,0,1568,824
0.10068,0.05034,1330.50884,-1347.19563,0.32,0,135.328651,0.00538292717,704,0,96,0,11072,353
0.101,0.0505,1329.3588,-1345.45751,0.32,0,135.649707,0.00483015577,704,0,176,0,1568,408
0.10132,0.05066,1330.76159,-1346.25433,0.32,0,135.961028,0.00450434955,704,0,100,0,1568,456
0.10164,0.05082,1333.04246,-1348.22083,0.32,0,136.241225,0.00433506415,704,0,12,0,1568,421
0.10196,0.05098,1335.84556,-1350.83698,0.32,0,136.520198,0.00424142482,704,0,0,0,1568,392
0.10228,0.05114,1338.95441,-1353.8207,0.64,0,136.820824,0.00416660812,704,0,4,0,1568,367
0.10292,0.05146,1368.85225,-1383.2358,0.64,0,137.200608,0.00568173388,704,0,4,0,1568,785
0.10356,0.05178,1387.29029,-1403.66881,0.64,0,137.575599,0.00646588651,704,0,32,0,1568,106
0.1042,0.0521,1401.74057,-1419.36721,0.64,0,137.957674,0.00668308727,704,0,8,0,1568,159
