# ADR90 WP-A2 END-OF-RUN plastic field, build a6a53948ef316f7eb6662ea09f2e1fb52d2b607f (expected a6a53948ef316f7eb6662ea09f2e1fb52d2b607f), leg h1.0_e0.6944, s/B=0.052100, mode FLOOR
ele,xc,zc,hx,hz,vol,eps_q_p,eta_grav
1,-26.4626081,-17.706199,7.07478378,4.58760194,16.2281459,8.22026047e-06,0.855053698
2,-26.4626081,-13.6329249,7.07478378,3.55894634,12.5893879,6.7926212e-05,0.855053698
3,-26.4626081,-10.4729811,7.07478378,2.76094116,9.76653089,0.000145925273,0.855053698
4,-26.4626081,-8.02157615,7.07478378,2.1418688,7.57662931,0.00021592322,0.855053698
5,-26.4626081,-6.11983775,7.07478378,1.66160801,5.87775869,0.000273069397,0.855053698
6,-26.4626081,-4.64451687,7.07478378,1.28903375,4.55981753,0.00031871908,0.855053698
7,-26.4626081,-3.5,7.07478378,1,3.53739189,0.000355450802,0.855053698
8,-26.4626081,-2.5,7.07478378,1,3.53739189,0.000387995752,0.855053698
9,-26.4626081,-1.5,7.07478378,1,3.53739189,0.000426505733,0.855053698
10,-26.4626081,-0.5,7.07478378,1,3.53739189,0.000468190848,0.855053698
11,-20.1552847,-17.706199,5.539863,4.58760194,12.7073431,3.25240059e-05,0.855053698
12,-20.1552847,-13.6329249,5.539863,3.55894634,9.85803758,0.000146821688,0.855053698
13,-20.1552847,-10.4729811,5.539863,2.76094116,7.64761791,0.000235457275,0.855053698
14,-20.1552847,-8.02157615,5.539863,2.1418688,5.93282985,0.000298187705,0.855053698
15,-20.1552847,-6.11983775,5.539863,1.66160801,4.60254036,0.000346016579,0.855053698
16,-20.1552847,-4.64451687,5.539863,1.28903375,3.57053519,0.000386528278,0.855053698
17,-20.1552847,-3.5,5.539863,1,2.7699315,0.000420917685,0.855053698
18,-20.1552847,-2.5,5.539863,1,2.7699315,0.000458476768,0.855053698
19,-20.1552847,-1.5,5.539863,1,2.7699315,0.000495611173,0.855053698
20,-20.1552847,-0.5,5.539863,1,2.7699315,0.000552142979,0.855053698
21,-15.2163765,-17.706199,4.33795336,4.58760194,9.95040164,6.5073173e-05,0.855053698
22,-15.2163765,-13.6329249,4.33795336,3.55894634,7.71927162,0.00027926221,0.855053698
23,-15.2163765,-10.4729811,4.33795336,2.76094116,5.98841701,0.000390122272,0.855053698
24,-15.2163765,-8.02157615,4.33795336,2.1418688,4.64566348,0.000473113631,0.855053698
25,-15.2163765,-6.11983775,4.33795336,1.66160801,3.60398902,0.000528629033,0.855053698
26,-15.2163765,-4.64451687,4.33795336,1.28903375,2.79588414,0.000548096581,0.855053698
27,-15.2163765,-3.5,4.33795336,1,2.16897668,0.00055230279,0.855053698
28,-15.2163765,-2.5,4.33795336,1,2.16897668,0.00054906615,0.855053698
29,-15.2163765,-1.5,4.33795336,1,2.16897668,0.000574004451,0.855053698
30,-15.2163765,-0.5,4.33795336,1,2.16897668,0.000587937185,0.855053698
31,-11.3489969,-17.706199,3.39680591,4.58760194,7.79159669,0.000101467519,0.855053698
32,-11.3489969,-13.6329249,3.39680591,3.55894634,6.04452498,0.000419128903,0.855053698
33,-11.3489969,-10.4729811,3.39680591,2.76094116,4.68919063,0.000644391688,0.855053698
34,-11.3489969,-8.02157615,3.39680591,2.1418688,3.63775629,0.000836426909,0.855053698
35,-11.3489969,-6.11983775,3.39680591,1.66160801,2.82207995,0.000905434453,0.855053698
36,-11.3489969,-4.64451687,3.39680591,1.28903375,2.18929873,0.000896992043,0.855053698
37,-11.3489969,-3.5,3.39680591,1,1.69840295,0.000838728955,0.855053698
38,-11.3489969,-2.5,3.39680591,1,1.69840295,0.000738714846,0.855053698
39,-11.3489969,-1.5,3.39680591,1,1.69840295,0.000541156932,0.855053698
40,-11.3489969,-0.5,3.39680591,1,1.69840295,0.000303470261,0.855053698
41,-8.32067065,-17.706199,2.65984657,4.58760194,6.10115865,0.000121333039,0.855053698
42,-8.32067065,-13.6329249,2.65984657,3.55894634,4.73312561,0.000507482491,0.855053698
43,-8.32067065,-10.4729811,2.65984657,2.76094116,3.67183995,0.000941752274,0.855053698
44,-8.32067065,-8.02157615,2.65984657,2.1418688,2.84852119,0.00139947159,0.855053698
45,-8.32067065,-6.11983775,2.65984657,1.66160801,2.20981118,0.00165945302,0.855053698
46,-8.32067065,-4.64451687,2.65984657,1.28903375,1.714316,0.00159975089,0.855053698
47,-8.32067065,-3.5,2.65984657,1,1.32992329,0.0013206083,0.855053698
48,-8.32067065,-2.5,2.65984657,1,1.32992329,0.000955148722,0.855053698
49,-8.32067065,-1.5,2.65984657,1,1.32992329,0.000626583869,0.855053698
50,-8.32067065,-0.5,2.65984657,1,1.32992329,0.000266118362,0.855053698
51,-5.94935967,-17.706199,2.0827754,4.58760194,4.77747223,0.000126934768,0.855053698
52,-5.94935967,-13.6329249,2.0827754,3.55894634,3.70624294,0.000502487385,0.855053698
53,-5.94935967,-10.4729811,2.0827754,2.76094116,2.87521017,0.00108064903,0.855053698
54,-5.94935967,-8.02157615,2.0827754,2.1418688,2.23051582,0.00177070784,0.855053698
55,-5.94935967,-6.11983775,2.0827754,1.66160801,1.73037814,0.00235220581,0.855053698
56,-5.94935967,-4.64451687,2.0827754,1.28903375,1.34238389,0.00238914688,0.855053698
57,-5.94935967,-3.5,2.0827754,1,1.0413877,0.00221218788,0.855053698
58,-5.94935967,-2.5,2.0827754,1,1.0413877,0.00156855339,0.855053698
59,-5.94935967,-1.5,2.0827754,1,1.0413877,0.000587554249,0.855053698
60,-5.94935967,-0.5,2.0827754,1,1.0413877,0.000587511098,0.855053698
61,-4.09252017,-17.706199,1.63090361,4.58760194,3.74096828,0.000116024523,0.855053698
62,-4.09252017,-13.6329249,1.63090361,3.55894634,2.90214921,0.000496510126,0.855053698
63,-4.09252017,-10.4729811,1.63090361,2.76094116,2.25141445,0.0011908675,0.855053698
64,-4.09252017,-8.02157615,1.63090361,2.1418688,1.74659077,0.00260122364,0.855053698
65,-4.09252017,-6.11983775,1.63090361,1.66160801,1.35496124,0.00394080665,0.855053698
66,-4.09252017,-4.64451687,1.63090361,1.28903375,1.05114489,0.00433432832,0.855053698
67,-4.09252017,-3.5,1.63090361,1,0.815451803,0.0042626816,0.855053698
68,-4.09252017,-2.5,1.63090361,1,0.815451803,0.00388707586,0.855053698
69,-4.09252017,-1.5,1.63090361,1,0.815451803,0.00205749423,0.855053698
70,-4.09252017,-0.5,1.63090361,1,0.815451803,0.00320509161,0.855053698
71,-2.63853418,-17.706199,1.27706836,4.58760194,2.92934065,0.000107207983,0.855053698
72,-2.63853418,-13.6329249,1.27706836,3.55894634,2.27250889,0.000647370938,0.855053698
73,-2.63853418,-10.4729811,1.27706836,2.76094116,1.76295531,0.00224957905,0.855053698
74,-2.63853418,-8.02157615,1.27706836,2.1418688,1.36765644,0.00453097338,0.855053698
75,-2.63853418,-6.11983775,1.27706836,1.66160801,1.06099351,0.00672804209,0.855053698
76,-2.63853418,-4.64451687,1.27706836,1.28903375,0.82309211,0.00849085039,0.855053698
77,-2.63853418,-3.5,1.27706836,1,0.638534182,0.00919437206,0.855053698
78,-2.63853418,-2.5,1.27706836,1,0.638534182,0.00984602955,0.855053698
79,-2.63853418,-1.5,1.27706836,1,0.638534182,0.00873807669,0.855053698
80,-2.63853418,-0.5,1.27706836,1,0.638534182,0.00333590635,0.855053698
81,-1.5,-17.706199,1,4.58760194,2.29380097,0.000133138784,0.855053698
82,-1.5,-13.6329249,1,3.55894634,1.77947317,0.0010808391,0.855053698
83,-1.5,-10.4729811,1,2.76094116,1.38047058,0.00279166154,0.855053698
84,-1.5,-8.02157615,1,2.1418688,1.0709344,0.00499756042,0.855053698
85,-1.5,-6.11983775,1,1.66160801,0.830804003,0.00794257973,0.855053698
86,-1.5,-4.64451687,1,1.28903375,0.644516874,0.0114100748,0.855053698
87,-1.5,-3.5,1,1,0.5,0.0149743054,0.855053698
88,-1.5,-2.5,1,1,0.5,0.0183404867,0.855053698
89,-1.5,-1.5,1,1,0.5,0.0225875459,0.855053698
90,-1.5,-0.5,1,1,0.5,0.0254881492,0.855053698
91,-0.5,-17.706199,1,4.58760194,2.29380097,0.000171053608,0.855053698
92,-0.5,-13.6329249,1,3.55894634,1.77947317,0.00130884045,0.855053698
93,-0.5,-10.4729811,1,2.76094116,1.38047058,0.00274487771,0.855053698
94,-0.5,-8.02157615,1,2.1418688,1.0709344,0.00495013949,0.855053698
95,-0.5,-6.11983775,1,1.66160801,0.830804003,0.00835596373,0.855053698
96,-0.5,-4.64451687,1,1.28903375,0.644516874,0.0122090197,0.855053698
97,-0.5,-3.5,1,1,0.5,0.0155376471,0.855053698
98,-0.5,-2.5,1,1,0.5,0.0168771808,0.855053698
99,-0.5,-1.5,1,1,0.5,0.0136324627,0.855053698
100,-0.5,-0.5,1,1,0.5,0.00521354707,0.855053698
101,0.5,-17.706199,1,4.58760194,2.29380097,0.000171054139,0.855053698
102,0.5,-13.6329249,1,3.55894634,1.77947317,0.00130862137,0.855053698
103,0.5,-10.4729811,1,2.76094116,1.38047058,0.0027451112,0.855053698
104,0.5,-8.02157615,1,2.1418688,1.0709344,0.00495046763,0.855053698
105,0.5,-6.11983775,1,1.66160801,0.830804003,0.00835543628,0.855053698
106,0.5,-4.64451687,1,1.28903375,0.644516874,0.0122089729,0.855053698
107,0.5,-3.5,1,1,0.5,0.0155378855,0.855053698
108,0.5,-2.5,1,1,0.5,0.0168773053,0.855053698
109,0.5,-1.5,1,1,0.5,0.0136330227,0.855053698
110,0.5,-0.5,1,1,0.5,0.00521352471,0.855053698
111,1.5,-17.706199,1,4.58760194,2.29380097,0.000133142049,0.855053698
112,1.5,-13.6329249,1,3.55894634,1.77947317,0.00108098676,0.855053698
113,1.5,-10.4729811,1,2.76094116,1.38047058,0.0027922385,0.855053698
114,1.5,-8.02157615,1,2.1418688,1.0709344,0.00499756507,0.855053698
115,1.5,-6.11983775,1,1.66160801,0.830804003,0.00794248631,0.855053698
116,1.5,-4.64451687,1,1.28903375,0.644516874,0.0114094275,0.855053698
117,1.5,-3.5,1,1,0.5,0.0149745282,0.855053698
118,1.5,-2.5,1,1,0.5,0.0183399704,0.855053698
119,1.5,-1.5,1,1,0.5,0.022587748,0.855053698
120,1.5,-0.5,1,1,0.5,0.0254879463,0.855053698
121,2.63853418,-17.706199,1.27706836,4.58760194,2.92934065,0.000107208573,0.855053698
122,2.63853418,-13.6329249,1.27706836,3.55894634,2.27250889,0.00064736776,0.855053698
123,2.63853418,-10.4729811,1.27706836,2.76094116,1.76295531,0.00224975663,0.855053698
124,2.63853418,-8.02157615,1.27706836,2.1418688,1.36765644,0.00453070448,0.855053698
125,2.63853418,-6.11983775,1.27706836,1.66160801,1.06099351,0.00672805133,0.855053698
126,2.63853418,-4.64451687,1.27706836,1.28903375,0.82309211,0.00849092183,0.855053698
127,2.63853418,-3.5,1.27706836,1,0.638534182,0.00919493514,0.855053698
128,2.63853418,-2.5,1.27706836,1,0.638534182,0.00984586998,0.855053698
129,2.63853418,-1.5,1.27706836,1,0.638534182,0.00873791897,0.855053698
130,2.63853418,-0.5,1.27706836,1,0.638534182,0.00333599474,0.855053698
131,4.09252017,-17.706199,1.63090361,4.58760194,3.74096828,0.00011602622,0.855053698
132,4.09252017,-13.6329249,1.63090361,3.55894634,2.90214921,0.000496646709,0.855053698
133,4.09252017,-10.4729811,1.63090361,2.76094116,2.25141445,0.00119099496,0.855053698
134,4.09252017,-8.02157615,1.63090361,2.1418688,1.74659077,0.00260102137,0.855053698
135,4.09252017,-6.11983775,1.63090361,1.66160801,1.35496124,0.00394028411,0.855053698
136,4.09252017,-4.64451687,1.63090361,1.28903375,1.05114489,0.0043338184,0.855053698
137,4.09252017,-3.5,1.63090361,1,0.815451803,0.0042628342,0.855053698
138,4.09252017,-2.5,1.63090361,1,0.815451803,0.00388696398,0.855053698
139,4.09252017,-1.5,1.63090361,1,0.815451803,0.00205771464,0.855053698
140,4.09252017,-0.5,1.63090361,1,0.815451803,0.00320530443,0.855053698
141,5.94935967,-17.706199,2.0827754,4.58760194,4.77747223,0.000126933288,0.855053698
142,5.94935967,-13.6329249,2.0827754,3.55894634,3.70624294,0.000502393116,0.855053698
143,5.94935967,-10.4729811,2.0827754,2.76094116,2.87521017,0.00108006477,0.855053698
144,5.94935967,-8.02157615,2.0827754,2.1418688,2.23051582,0.00177049961,0.855053698
145,5.94935967,-6.11983775,2.0827754,1.66160801,1.73037814,0.00235204891,0.855053698
146,5.94935967,-4.64451687,2.0827754,1.28903375,1.34238389,0.00238914401,0.855053698
147,5.94935967,-3.5,2.0827754,1,1.0413877,0.00221249503,0.855053698
148,5.94935967,-2.5,2.0827754,1,1.0413877,0.00156923997,0.855053698
149,5.94935967,-1.5,2.0827754,1,1.0413877,0.000587581356,0.855053698
150,5.94935967,-0.5,2.0827754,1,1.0413877,0.000587507949,0.855053698
151,8.32067065,-17.706199,2.65984657,4.58760194,6.10115865,0.000121333556,0.855053698
152,8.32067065,-13.6329249,2.65984657,3.55894634,4.73312561,0.000507402744,0.855053698
153,8.32067065,-10.4729811,2.65984657,2.76094116,3.67183995,0.000942538913,0.855053698
154,8.32067065,-8.02157615,2.65984657,2.1418688,2.84852119,0.00139978576,0.855053698
155,8.32067065,-6.11983775,2.65984657,1.66160801,2.20981118,0.00165936089,0.855053698
156,8.32067065,-4.64451687,2.65984657,1.28903375,1.714316,0.0016001602,0.855053698
157,8.32067065,-3.5,2.65984657,1,1.32992329,0.00132069447,0.855053698
158,8.32067065,-2.5,2.65984657,1,1.32992329,0.000955081436,0.855053698
159,8.32067065,-1.5,2.65984657,1,1.32992329,0.000626888454,0.855053698
160,8.32067065,-0.5,2.65984657,1,1.32992329,0.000266265581,0.855053698
161,11.3489969,-17.706199,3.39680591,4.58760194,7.79159669,0.00010146962,0.855053698
162,11.3489969,-13.6329249,3.39680591,3.55894634,6.04452498,0.00041924475,0.855053698
163,11.3489969,-10.4729811,3.39680591,2.76094116,4.68919063,0.000644456365,0.855053698
164,11.3489969,-8.02157615,3.39680591,2.1418688,3.63775629,0.000835841802,0.855053698
165,11.3489969,-6.11983775,3.39680591,1.66160801,2.82207995,0.000905094375,0.855053698
166,11.3489969,-4.64451687,3.39680591,1.28903375,2.18929873,0.000896460386,0.855053698
167,11.3489969,-3.5,3.39680591,1,1.69840295,0.000838983895,0.855053698
168,11.3489969,-2.5,3.39680591,1,1.69840295,0.000738314117,0.855053698
169,11.3489969,-1.5,3.39680591,1,1.69840295,0.000541096886,0.855053698
170,11.3489969,-0.5,3.39680591,1,1.69840295,0.000303330582,0.855053698
171,15.2163765,-17.706199,4.33795336,4.58760194,9.95040164,6.50727459e-05,0.855053698
172,15.2163765,-13.6329249,4.33795336,3.55894634,7.71927162,0.000279219269,0.855053698
173,15.2163765,-10.4729811,4.33795336,2.76094116,5.98841701,0.000390220036,0.855053698
174,15.2163765,-8.02157615,4.33795336,2.1418688,4.64566348,0.000473274171,0.855053698
175,15.2163765,-6.11983775,4.33795336,1.66160801,3.60398902,0.000528549895,0.855053698
176,15.2163765,-4.64451687,4.33795336,1.28903375,2.79588414,0.000548084342,0.855053698
177,15.2163765,-3.5,4.33795336,1,2.16897668,0.000552012965,0.855053698
178,15.2163765,-2.5,4.33795336,1,2.16897668,0.000548293576,0.855053698
179,15.2163765,-1.5,4.33795336,1,2.16897668,0.000574355655,0.855053698
180,15.2163765,-0.5,4.33795336,1,2.16897668,0.000588003989,0.855053698
181,20.1552847,-17.706199,5.539863,4.58760194,12.7073431,3.25243478e-05,0.855053698
182,20.1552847,-13.6329249,5.539863,3.55894634,9.85803758,0.000146822186,0.855053698
183,20.1552847,-10.4729811,5.539863,2.76094116,7.64761791,0.00023545802,0.855053698
184,20.1552847,-8.02157615,5.539863,2.1418688,5.93282985,0.000298175697,0.855053698
185,20.1552847,-6.11983775,5.539863,1.66160801,4.60254036,0.000346025349,0.855053698
186,20.1552847,-4.64451687,5.539863,1.28903375,3.57053519,0.000386556339,0.855053698
187,20.1552847,-3.5,5.539863,1,2.7699315,0.000421119539,0.855053698
188,20.1552847,-2.5,5.539863,1,2.7699315,0.000458310399,0.855053698
189,20.1552847,-1.5,5.539863,1,2.7699315,0.000495725535,0.855053698
190,20.1552847,-0.5,5.539863,1,2.7699315,0.000552021099,0.855053698
191,26.4626081,-17.706199,7.07478378,4.58760194,16.2281459,8.22025691e-06,0.855053698
192,26.4626081,-13.6329249,7.07478378,3.55894634,12.5893879,6.79263079e-05,0.855053698
193,26.4626081,-10.4729811,7.07478378,2.76094116,9.76653089,0.000145925498,0.855053698
194,26.4626081,-8.02157615,7.07478378,2.1418688,7.57662931,0.000215923199,0.855053698
195,26.4626081,-6.11983775,7.07478378,1.66160801,5.87775869,0.00027303441,0.855053698
196,26.4626081,-4.64451687,7.07478378,1.28903375,4.55981753,0.000318696659,0.855053698
197,26.4626081,-3.5,7.07478378,1,3.53739189,0.000355262247,0.855053698
198,26.4626081,-2.5,7.07478378,1,3.53739189,0.000387940634,0.855053698
199,26.4626081,-1.5,7.07478378,1,3.53739189,0.000426599996,0.855053698
200,26.4626081,-0.5,7.07478378,1,3.53739189,0.000468345282,0.855053698
