# ADR90 WP-A2 plastic field at CHECKPOINT s/B=0.005 (actual 0.005060), build a6a53948ef316f7eb6662ea09f2e1fb52d2b607f (expected a6a53948ef316f7eb6662ea09f2e1fb52d2b607f), leg h1.0_e0.6944, q_foot=140.0900 kPa
ele,xc,zc,hx,hz,vol,eps_q_p,eta_grav
1,-26.4626081,-17.706199,7.07478378,4.58760194,16.2281459,2.59051521e-07,0.855053698
2,-26.4626081,-13.6329249,7.07478378,3.55894634,12.5893879,1.58335264e-06,0.855053698
3,-26.4626081,-10.4729811,7.07478378,2.76094116,9.76653089,3.37744798e-06,0.855053698
4,-26.4626081,-8.02157615,7.07478378,2.1418688,7.57662931,5.09595494e-06,0.855053698
5,-26.4626081,-6.11983775,7.07478378,1.66160801,5.87775869,6.63375884e-06,0.855053698
6,-26.4626081,-4.64451687,7.07478378,1.28903375,4.55981753,7.99896375e-06,0.855053698
7,-26.4626081,-3.5,7.07478378,1,3.53739189,9.23743955e-06,0.855053698
8,-26.4626081,-2.5,7.07478378,1,3.53739189,1.05602649e-05,0.855053698
9,-26.4626081,-1.5,7.07478378,1,3.53739189,1.22932794e-05,0.855053698
10,-26.4626081,-0.5,7.07478378,1,3.53739189,1.49867108e-05,0.855053698
11,-20.1552847,-17.706199,5.539863,4.58760194,12.7073431,1.42087812e-06,0.855053698
12,-20.1552847,-13.6329249,5.539863,3.55894634,9.85803758,3.16933945e-06,0.855053698
13,-20.1552847,-10.4729811,5.539863,2.76094116,7.64761791,5.33697541e-06,0.855053698
14,-20.1552847,-8.02157615,5.539863,2.1418688,5.93282985,7.20935915e-06,0.855053698
15,-20.1552847,-6.11983775,5.539863,1.66160801,4.60254036,8.64938959e-06,0.855053698
16,-20.1552847,-4.64451687,5.539863,1.28903375,3.57053519,9.85756558e-06,0.855053698
17,-20.1552847,-3.5,5.539863,1,2.7699315,1.09441014e-05,0.855053698
18,-20.1552847,-2.5,5.539863,1,2.7699315,1.20361084e-05,0.855053698
19,-20.1552847,-1.5,5.539863,1,2.7699315,1.35417487e-05,0.855053698
20,-20.1552847,-0.5,5.539863,1,2.7699315,1.62204605e-05,0.855053698
21,-15.2163765,-17.706199,4.33795336,4.58760194,9.95040164,3.53118161e-06,0.855053698
22,-15.2163765,-13.6329249,4.33795336,3.55894634,7.71927162,6.34455228e-06,0.855053698
23,-15.2163765,-10.4729811,4.33795336,2.76094116,5.98841701,9.39633382e-06,0.855053698
24,-15.2163765,-8.02157615,4.33795336,2.1418688,4.64566348,1.1819416e-05,0.855053698
25,-15.2163765,-6.11983775,4.33795336,1.66160801,3.60398902,1.34139356e-05,0.855053698
26,-15.2163765,-4.64451687,4.33795336,1.28903375,2.79588414,1.40427347e-05,0.855053698
27,-15.2163765,-3.5,4.33795336,1,2.16897668,1.41266217e-05,0.855053698
28,-15.2163765,-2.5,4.33795336,1,2.16897668,1.43151685e-05,0.855053698
29,-15.2163765,-1.5,4.33795336,1,2.16897668,1.46995704e-05,0.855053698
30,-15.2163765,-0.5,4.33795336,1,2.16897668,1.54243256e-05,0.855053698
31,-11.3489969,-17.706199,3.39680591,4.58760194,7.79159669,9.0503702e-06,0.855053698
32,-11.3489969,-13.6329249,3.39680591,3.55894634,6.04452498,7.85450986e-06,0.855053698
33,-11.3489969,-10.4729811,3.39680591,2.76094116,4.68919063,1.51916675e-05,0.855053698
34,-11.3489969,-8.02157615,3.39680591,2.1418688,3.63775629,2.0786935e-05,0.855053698
35,-11.3489969,-6.11983775,3.39680591,1.66160801,2.82207995,2.28067366e-05,0.855053698
36,-11.3489969,-4.64451687,3.39680591,1.28903375,2.18929873,2.2885354e-05,0.855053698
37,-11.3489969,-3.5,3.39680591,1,1.69840295,2.17896397e-05,0.855053698
38,-11.3489969,-2.5,3.39680591,1,1.69840295,1.89389492e-05,0.855053698
39,-11.3489969,-1.5,3.39680591,1,1.69840295,1.5232016e-05,0.855053698
40,-11.3489969,-0.5,3.39680591,1,1.69840295,1.27848216e-05,0.855053698
41,-8.32067065,-17.706199,2.65984657,4.58760194,6.10115865,2.49290787e-05,0.855053698
42,-8.32067065,-13.6329249,2.65984657,3.55894634,4.73312561,2.2987845e-05,0.855053698
43,-8.32067065,-10.4729811,2.65984657,2.76094116,3.67183995,2.36045349e-05,0.855053698
44,-8.32067065,-8.02157615,2.65984657,2.1418688,2.84852119,3.46113046e-05,0.855053698
45,-8.32067065,-6.11983775,2.65984657,1.66160801,2.20981118,4.42811511e-05,0.855053698
46,-8.32067065,-4.64451687,2.65984657,1.28903375,1.714316,4.47362089e-05,0.855053698
47,-8.32067065,-3.5,2.65984657,1,1.32992329,3.86599784e-05,0.855053698
48,-8.32067065,-2.5,2.65984657,1,1.32992329,3.10820139e-05,0.855053698
49,-8.32067065,-1.5,2.65984657,1,1.32992329,2.02748547e-05,0.855053698
50,-8.32067065,-0.5,2.65984657,1,1.32992329,7.97637865e-06,0.855053698
51,-5.94935967,-17.706199,2.0827754,4.58760194,4.77747223,3.36131187e-05,0.855053698
52,-5.94935967,-13.6329249,2.0827754,3.55894634,3.70624294,5.7769426e-05,0.855053698
53,-5.94935967,-10.4729811,2.0827754,2.76094116,2.87521017,8.09223824e-05,0.855053698
54,-5.94935967,-8.02157615,2.0827754,2.1418688,2.23051582,7.54294239e-05,0.855053698
55,-5.94935967,-6.11983775,2.0827754,1.66160801,1.73037814,8.93344946e-05,0.855053698
56,-5.94935967,-4.64451687,2.0827754,1.28903375,1.34238389,0.000100570091,0.855053698
57,-5.94935967,-3.5,2.0827754,1,1.0413877,9.40392466e-05,0.855053698
58,-5.94935967,-2.5,2.0827754,1,1.0413877,6.55827476e-05,0.855053698
59,-5.94935967,-1.5,2.0827754,1,1.0413877,3.30027407e-05,0.855053698
60,-5.94935967,-0.5,2.0827754,1,1.0413877,1.5129567e-05,0.855053698
61,-4.09252017,-17.706199,1.63090361,4.58760194,3.74096828,3.79027929e-05,0.855053698
62,-4.09252017,-13.6329249,1.63090361,3.55894634,2.90214921,8.55214945e-05,0.855053698
63,-4.09252017,-10.4729811,1.63090361,2.76094116,2.25141445,0.000149012758,0.855053698
64,-4.09252017,-8.02157615,1.63090361,2.1418688,1.74659077,0.000214707856,0.855053698
65,-4.09252017,-6.11983775,1.63090361,1.66160801,1.35496124,0.000256372353,0.855053698
66,-4.09252017,-4.64451687,1.63090361,1.28903375,1.05114489,0.000252489085,0.855053698
67,-4.09252017,-3.5,1.63090361,1,0.815451803,0.000267386707,0.855053698
68,-4.09252017,-2.5,1.63090361,1,0.815451803,0.00024793016,0.855053698
69,-4.09252017,-1.5,1.63090361,1,0.815451803,0.000126171529,0.855053698
70,-4.09252017,-0.5,1.63090361,1,0.815451803,0.00013968025,0.855053698
71,-2.63853418,-17.706199,1.27706836,4.58760194,2.92934065,3.74062164e-05,0.855053698
72,-2.63853418,-13.6329249,1.27706836,3.55894634,2.27250889,0.000107248677,0.855053698
73,-2.63853418,-10.4729811,1.27706836,2.76094116,1.76295531,0.000199137127,0.855053698
74,-2.63853418,-8.02157615,1.27706836,2.1418688,1.36765644,0.000312083179,0.855053698
75,-2.63853418,-6.11983775,1.27706836,1.66160801,1.06099351,0.000451745221,0.855053698
76,-2.63853418,-4.64451687,1.27706836,1.28903375,0.82309211,0.000582107826,0.855053698
77,-2.63853418,-3.5,1.27706836,1,0.638534182,0.000656121102,0.855053698
78,-2.63853418,-2.5,1.27706836,1,0.638534182,0.000737294689,0.855053698
79,-2.63853418,-1.5,1.27706836,1,0.638534182,0.00068997652,0.855053698
80,-2.63853418,-0.5,1.27706836,1,0.638534182,0.00031826372,0.855053698
81,-1.5,-17.706199,1,4.58760194,2.29380097,3.71382576e-05,0.855053698
82,-1.5,-13.6329249,1,3.55894634,1.77947317,0.000119781473,0.855053698
83,-1.5,-10.4729811,1,2.76094116,1.38047058,0.000225628414,0.855053698
84,-1.5,-8.02157615,1,2.1418688,1.0709344,0.000376545391,0.855053698
85,-1.5,-6.11983775,1,1.66160801,0.830804003,0.000579767507,0.855053698
86,-1.5,-4.64451687,1,1.28903375,0.644516874,0.000837665254,0.855053698
87,-1.5,-3.5,1,1,0.5,0.00114541076,0.855053698
88,-1.5,-2.5,1,1,0.5,0.0015092249,0.855053698
89,-1.5,-1.5,1,1,0.5,0.00203020906,0.855053698
90,-1.5,-0.5,1,1,0.5,0.00283549583,0.855053698
91,-0.5,-17.706199,1,4.58760194,2.29380097,3.68173584e-05,0.855053698
92,-0.5,-13.6329249,1,3.55894634,1.77947317,0.000124301268,0.855053698
93,-0.5,-10.4729811,1,2.76094116,1.38047058,0.00023884783,0.855053698
94,-0.5,-8.02157615,1,2.1418688,1.0709344,0.000397501456,0.855053698
95,-0.5,-6.11983775,1,1.66160801,0.830804003,0.000623492377,0.855053698
96,-0.5,-4.64451687,1,1.28903375,0.644516874,0.00091594608,0.855053698
97,-0.5,-3.5,1,1,0.5,0.00125007615,0.855053698
98,-0.5,-2.5,1,1,0.5,0.0016092601,0.855053698
99,-0.5,-1.5,1,1,0.5,0.00158206226,0.855053698
100,-0.5,-0.5,1,1,0.5,0.000663411922,0.855053698
101,0.5,-17.706199,1,4.58760194,2.29380097,3.68174439e-05,0.855053698
102,0.5,-13.6329249,1,3.55894634,1.77947317,0.00012429949,0.855053698
103,0.5,-10.4729811,1,2.76094116,1.38047058,0.000238593198,0.855053698
104,0.5,-8.02157615,1,2.1418688,1.0709344,0.000397609309,0.855053698
105,0.5,-6.11983775,1,1.66160801,0.830804003,0.000623100415,0.855053698
106,0.5,-4.64451687,1,1.28903375,0.644516874,0.00091590031,0.855053698
107,0.5,-3.5,1,1,0.5,0.00125022253,0.855053698
108,0.5,-2.5,1,1,0.5,0.00160908159,0.855053698
109,0.5,-1.5,1,1,0.5,0.00158231688,0.855053698
110,0.5,-0.5,1,1,0.5,0.00066339522,0.855053698
111,1.5,-17.706199,1,4.58760194,2.29380097,3.71396482e-05,0.855053698
112,1.5,-13.6329249,1,3.55894634,1.77947317,0.000119775838,0.855053698
113,1.5,-10.4729811,1,2.76094116,1.38047058,0.000225728021,0.855053698
114,1.5,-8.02157615,1,2.1418688,1.0709344,0.000376622584,0.855053698
115,1.5,-6.11983775,1,1.66160801,0.830804003,0.000579688766,0.855053698
116,1.5,-4.64451687,1,1.28903375,0.644516874,0.000837198683,0.855053698
117,1.5,-3.5,1,1,0.5,0.00114535724,0.855053698
118,1.5,-2.5,1,1,0.5,0.00150915083,0.855053698
119,1.5,-1.5,1,1,0.5,0.00203030112,0.855053698
120,1.5,-0.5,1,1,0.5,0.00283551372,0.855053698
121,2.63853418,-17.706199,1.27706836,4.58760194,2.92934065,3.740883e-05,0.855053698
122,2.63853418,-13.6329249,1.27706836,3.55894634,2.27250889,0.000107243633,0.855053698
123,2.63853418,-10.4729811,1.27706836,2.76094116,1.76295531,0.000199460061,0.855053698
124,2.63853418,-8.02157615,1.27706836,2.1418688,1.36765644,0.000312018749,0.855053698
125,2.63853418,-6.11983775,1.27706836,1.66160801,1.06099351,0.000451855638,0.855053698
126,2.63853418,-4.64451687,1.27706836,1.28903375,0.82309211,0.000582111501,0.855053698
127,2.63853418,-3.5,1.27706836,1,0.638534182,0.00065624525,0.855053698
128,2.63853418,-2.5,1.27706836,1,0.638534182,0.000737367058,0.855053698
129,2.63853418,-1.5,1.27706836,1,0.638534182,0.000689979401,0.855053698
130,2.63853418,-0.5,1.27706836,1,0.638534182,0.000318452497,0.855053698
131,4.09252017,-17.706199,1.63090361,4.58760194,3.74096828,3.79037169e-05,0.855053698
132,4.09252017,-13.6329249,1.63090361,3.55894634,2.90214921,8.55208896e-05,0.855053698
133,4.09252017,-10.4729811,1.63090361,2.76094116,2.25141445,0.000149120746,0.855053698
134,4.09252017,-8.02157615,1.63090361,2.1418688,1.74659077,0.000214497761,0.855053698
135,4.09252017,-6.11983775,1.63090361,1.66160801,1.35496124,0.000256458453,0.855053698
136,4.09252017,-4.64451687,1.63090361,1.28903375,1.05114489,0.000252187486,0.855053698
137,4.09252017,-3.5,1.63090361,1,0.815451803,0.000267345817,0.855053698
138,4.09252017,-2.5,1.63090361,1,0.815451803,0.000247826317,0.855053698
139,4.09252017,-1.5,1.63090361,1,0.815451803,0.000126162346,0.855053698
140,4.09252017,-0.5,1.63090361,1,0.815451803,0.000139657616,0.855053698
141,5.94935967,-17.706199,2.0827754,4.58760194,4.77747223,3.36121778e-05,0.855053698
142,5.94935967,-13.6329249,2.0827754,3.55894634,3.70624294,5.77681855e-05,0.855053698
143,5.94935967,-10.4729811,2.0827754,2.76094116,2.87521017,8.09243582e-05,0.855053698
144,5.94935967,-8.02157615,2.0827754,2.1418688,2.23051582,7.542779e-05,0.855053698
145,5.94935967,-6.11983775,2.0827754,1.66160801,1.73037814,8.92828118e-05,0.855053698
146,5.94935967,-4.64451687,2.0827754,1.28903375,1.34238389,0.000100208122,0.855053698
147,5.94935967,-3.5,2.0827754,1,1.0413877,9.40468563e-05,0.855053698
148,5.94935967,-2.5,2.0827754,1,1.0413877,6.59071077e-05,0.855053698
149,5.94935967,-1.5,2.0827754,1,1.0413877,3.29998553e-05,0.855053698
150,5.94935967,-0.5,2.0827754,1,1.0413877,1.51287985e-05,0.855053698
151,8.32067065,-17.706199,2.65984657,4.58760194,6.10115865,2.49285686e-05,0.855053698
152,8.32067065,-13.6329249,2.65984657,3.55894634,4.73312561,2.29882397e-05,0.855053698
153,8.32067065,-10.4729811,2.65984657,2.76094116,3.67183995,2.36052682e-05,0.855053698
154,8.32067065,-8.02157615,2.65984657,2.1418688,2.84852119,3.46122485e-05,0.855053698
155,8.32067065,-6.11983775,2.65984657,1.66160801,2.20981118,4.42821732e-05,0.855053698
156,8.32067065,-4.64451687,2.65984657,1.28903375,1.714316,4.47366278e-05,0.855053698
157,8.32067065,-3.5,2.65984657,1,1.32992329,3.86593068e-05,0.855053698
158,8.32067065,-2.5,2.65984657,1,1.32992329,3.10809196e-05,0.855053698
159,8.32067065,-1.5,2.65984657,1,1.32992329,2.02741222e-05,0.855053698
160,8.32067065,-0.5,2.65984657,1,1.32992329,7.97638199e-06,0.855053698
161,11.3489969,-17.706199,3.39680591,4.58760194,7.79159669,9.05028105e-06,0.855053698
162,11.3489969,-13.6329249,3.39680591,3.55894634,6.04452498,7.8545493e-06,0.855053698
163,11.3489969,-10.4729811,3.39680591,2.76094116,4.68919063,1.5191889e-05,0.855053698
164,11.3489969,-8.02157615,3.39680591,2.1418688,3.63775629,2.07871849e-05,0.855053698
165,11.3489969,-6.11983775,3.39680591,1.66160801,2.82207995,2.28068422e-05,0.855053698
166,11.3489969,-4.64451687,3.39680591,1.28903375,2.18929873,2.28856249e-05,0.855053698
167,11.3489969,-3.5,3.39680591,1,1.69840295,2.17901907e-05,0.855053698
168,11.3489969,-2.5,3.39680591,1,1.69840295,1.89393477e-05,0.855053698
169,11.3489969,-1.5,3.39680591,1,1.69840295,1.52318879e-05,0.855053698
170,11.3489969,-0.5,3.39680591,1,1.69840295,1.27843869e-05,0.855053698
171,15.2163765,-17.706199,4.33795336,4.58760194,9.95040164,3.53111774e-06,0.855053698
172,15.2163765,-13.6329249,4.33795336,3.55894634,7.71927162,6.34455589e-06,0.855053698
173,15.2163765,-10.4729811,4.33795336,2.76094116,5.98841701,9.39639469e-06,0.855053698
174,15.2163765,-8.02157615,4.33795336,2.1418688,4.64566348,1.18195121e-05,0.855053698
175,15.2163765,-6.11983775,4.33795336,1.66160801,3.60398902,1.34140945e-05,0.855053698
176,15.2163765,-4.64451687,4.33795336,1.28903375,2.79588414,1.40428758e-05,0.855053698
177,15.2163765,-3.5,4.33795336,1,2.16897668,1.41266704e-05,0.855053698
178,15.2163765,-2.5,4.33795336,1,2.16897668,1.43152297e-05,0.855053698
179,15.2163765,-1.5,4.33795336,1,2.16897668,1.46997257e-05,0.855053698
180,15.2163765,-0.5,4.33795336,1,2.16897668,1.54244763e-05,0.855053698
181,20.1552847,-17.706199,5.539863,4.58760194,12.7073431,1.42086948e-06,0.855053698
182,20.1552847,-13.6329249,5.539863,3.55894634,9.85803758,3.16933106e-06,0.855053698
183,20.1552847,-10.4729811,5.539863,2.76094116,7.64761791,5.33698396e-06,0.855053698
184,20.1552847,-8.02157615,5.539863,2.1418688,5.93282985,7.2093911e-06,0.855053698
185,20.1552847,-6.11983775,5.539863,1.66160801,4.60254036,8.64942651e-06,0.855053698
186,20.1552847,-4.64451687,5.539863,1.28903375,3.57053519,9.85761687e-06,0.855053698
187,20.1552847,-3.5,5.539863,1,2.7699315,1.09441877e-05,0.855053698
188,20.1552847,-2.5,5.539863,1,2.7699315,1.20362022e-05,0.855053698
189,20.1552847,-1.5,5.539863,1,2.7699315,1.35418392e-05,0.855053698
190,20.1552847,-0.5,5.539863,1,2.7699315,1.62205987e-05,0.855053698
191,26.4626081,-17.706199,7.07478378,4.58760194,16.2281459,2.59049892e-07,0.855053698
192,26.4626081,-13.6329249,7.07478378,3.55894634,12.5893879,1.58334863e-06,0.855053698
193,26.4626081,-10.4729811,7.07478378,2.76094116,9.76653089,3.37744649e-06,0.855053698
194,26.4626081,-8.02157615,7.07478378,2.1418688,7.57662931,5.09596132e-06,0.855053698
195,26.4626081,-6.11983775,7.07478378,1.66160801,5.87775869,6.63377854e-06,0.855053698
196,26.4626081,-4.64451687,7.07478378,1.28903375,4.55981753,7.99899513e-06,0.855053698
197,26.4626081,-3.5,7.07478378,1,3.53739189,9.23747718e-06,0.855053698
198,26.4626081,-2.5,7.07478378,1,3.53739189,1.05603145e-05,0.855053698
199,26.4626081,-1.5,7.07478378,1,3.53739189,1.22933454e-05,0.855053698
200,26.4626081,-0.5,7.07478378,1,3.53739189,1.49867868e-05,0.855053698
