# ADR90 WP-A2 plastic field at CHECKPOINT s/B=0.01 (actual 0.010180), build 80e65a4de9bd6741261332b6f92de3a84bb4c642, leg h1.0_e0.6944, q_foot=253.0128 kPa
ele,xc,zc,hx,hz,vol,eps_q_p,eta_grav
1,-26.4626081,-17.706199,7.07478378,4.58760194,16.2281459,1.29485007e-06,0.855053698
2,-26.4626081,-13.6329249,7.07478378,3.55894634,12.5893879,6.02342215e-06,0.855053698
3,-26.4626081,-10.4729811,7.07478378,2.76094116,9.76653089,1.18776388e-05,0.855053698
4,-26.4626081,-8.02157615,7.07478378,2.1418688,7.57662931,1.74521906e-05,0.855053698
5,-26.4626081,-6.11983775,7.07478378,1.66160801,5.87775869,2.1981808e-05,0.855053698
6,-26.4626081,-4.64451687,7.07478378,1.28903375,4.55981753,2.59968172e-05,0.855053698
7,-26.4626081,-3.5,7.07478378,1,3.53739189,2.94539168e-05,0.855053698
8,-26.4626081,-2.5,7.07478378,1,3.53739189,3.3096103e-05,0.855053698
9,-26.4626081,-1.5,7.07478378,1,3.53739189,3.74820514e-05,0.855053698
10,-26.4626081,-0.5,7.07478378,1,3.53739189,4.38846242e-05,0.855053698
11,-20.1552847,-17.706199,5.539863,4.58760194,12.7073431,5.66668725e-06,0.855053698
12,-20.1552847,-13.6329249,5.539863,3.55894634,9.85803758,1.14309434e-05,0.855053698
13,-20.1552847,-10.4729811,5.539863,2.76094116,7.64761791,1.79790927e-05,0.855053698
14,-20.1552847,-8.02157615,5.539863,2.1418688,5.93282985,2.35284293e-05,0.855053698
15,-20.1552847,-6.11983775,5.539863,1.66160801,4.60254036,2.7976473e-05,0.855053698
16,-20.1552847,-4.64451687,5.539863,1.28903375,3.57053519,3.1637119e-05,0.855053698
17,-20.1552847,-3.5,5.539863,1,2.7699315,3.47712097e-05,0.855053698
18,-20.1552847,-2.5,5.539863,1,2.7699315,3.80150377e-05,0.855053698
19,-20.1552847,-1.5,5.539863,1,2.7699315,4.20083739e-05,0.855053698
20,-20.1552847,-0.5,5.539863,1,2.7699315,4.85087506e-05,0.855053698
21,-15.2163765,-17.706199,4.33795336,4.58760194,9.95040164,1.18573025e-05,0.855053698
22,-15.2163765,-13.6329249,4.33795336,3.55894634,7.71927162,2.09139417e-05,0.855053698
23,-15.2163765,-10.4729811,4.33795336,2.76094116,5.98841701,2.96440708e-05,0.855053698
24,-15.2163765,-8.02157615,4.33795336,2.1418688,4.64566348,3.70863322e-05,0.855053698
25,-15.2163765,-6.11983775,4.33795336,1.66160801,3.60398902,4.1681753e-05,0.855053698
26,-15.2163765,-4.64451687,4.33795336,1.28903375,2.79588414,4.40646357e-05,0.855053698
27,-15.2163765,-3.5,4.33795336,1,2.16897668,4.4709492e-05,0.855053698
28,-15.2163765,-2.5,4.33795336,1,2.16897668,4.55769329e-05,0.855053698
29,-15.2163765,-1.5,4.33795336,1,2.16897668,4.71426694e-05,0.855053698
30,-15.2163765,-0.5,4.33795336,1,2.16897668,4.88131434e-05,0.855053698
31,-11.3489969,-17.706199,3.39680591,4.58760194,7.79159669,2.81204491e-05,0.855053698
32,-11.3489969,-13.6329249,3.39680591,3.55894634,6.04452498,2.71468831e-05,0.855053698
33,-11.3489969,-10.4729811,3.39680591,2.76094116,4.68919063,4.72132474e-05,0.855053698
34,-11.3489969,-8.02157615,3.39680591,2.1418688,3.63775629,6.29637688e-05,0.855053698
35,-11.3489969,-6.11983775,3.39680591,1.66160801,2.82207995,6.9045209e-05,0.855053698
36,-11.3489969,-4.64451687,3.39680591,1.28903375,2.18929873,6.90927497e-05,0.855053698
37,-11.3489969,-3.5,3.39680591,1,1.69840295,6.60726545e-05,0.855053698
38,-11.3489969,-2.5,3.39680591,1,1.69840295,5.89929188e-05,0.855053698
39,-11.3489969,-1.5,3.39680591,1,1.69840295,4.95756901e-05,0.855053698
40,-11.3489969,-0.5,3.39680591,1,1.69840295,4.33960783e-05,0.855053698
41,-8.32067065,-17.706199,2.65984657,4.58760194,6.10115865,5.29409047e-05,0.855053698
42,-8.32067065,-13.6329249,2.65984657,3.55894634,4.73312561,4.49669909e-05,0.855053698
43,-8.32067065,-10.4729811,2.65984657,2.76094116,3.67183995,6.25119208e-05,0.855053698
44,-8.32067065,-8.02157615,2.65984657,2.1418688,2.84852119,9.94802825e-05,0.855053698
45,-8.32067065,-6.11983775,2.65984657,1.66160801,2.20981118,0.000124239037,0.855053698
46,-8.32067065,-4.64451687,2.65984657,1.28903375,1.714316,0.000125913058,0.855053698
47,-8.32067065,-3.5,2.65984657,1,1.32992329,0.000110817656,0.855053698
48,-8.32067065,-2.5,2.65984657,1,1.32992329,9.04194746e-05,0.855053698
49,-8.32067065,-1.5,2.65984657,1,1.32992329,6.17879328e-05,0.855053698
50,-8.32067065,-0.5,2.65984657,1,1.32992329,2.56449283e-05,0.855053698
51,-5.94935967,-17.706199,2.0827754,4.58760194,4.77747223,7.28390337e-05,0.855053698
52,-5.94935967,-13.6329249,2.0827754,3.55894634,3.70624294,0.000119628693,0.855053698
53,-5.94935967,-10.4729811,2.0827754,2.76094116,2.87521017,0.000175800776,0.855053698
54,-5.94935967,-8.02157615,2.0827754,2.1418688,2.23051582,0.000201707206,0.855053698
55,-5.94935967,-6.11983775,2.0827754,1.66160801,1.73037814,0.00024042496,0.855053698
56,-5.94935967,-4.64451687,2.0827754,1.28903375,1.34238389,0.000265585654,0.855053698
57,-5.94935967,-3.5,2.0827754,1,1.0413877,0.000249939284,0.855053698
58,-5.94935967,-2.5,2.0827754,1,1.0413877,0.000182331696,0.855053698
59,-5.94935967,-1.5,2.0827754,1,1.0413877,9.47815562e-05,0.855053698
60,-5.94935967,-0.5,2.0827754,1,1.0413877,4.19934237e-05,0.855053698
61,-4.09252017,-17.706199,1.63090361,4.58760194,3.74096828,8.35047646e-05,0.855053698
62,-4.09252017,-13.6329249,1.63090361,3.55894634,2.90214921,0.0001795678,0.855053698
63,-4.09252017,-10.4729811,1.63090361,2.76094116,2.25141445,0.000313111853,0.855053698
64,-4.09252017,-8.02157615,1.63090361,2.1418688,1.74659077,0.000463068256,0.855053698
65,-4.09252017,-6.11983775,1.63090361,1.66160801,1.35496124,0.000576665135,0.855053698
66,-4.09252017,-4.64451687,1.63090361,1.28903375,1.05114489,0.000616031654,0.855053698
67,-4.09252017,-3.5,1.63090361,1,0.815451803,0.00065563354,0.855053698
68,-4.09252017,-2.5,1.63090361,1,0.815451803,0.000585126087,0.855053698
69,-4.09252017,-1.5,1.63090361,1,0.815451803,0.000304332164,0.855053698
70,-4.09252017,-0.5,1.63090361,1,0.815451803,0.000201085251,0.855053698
71,-2.63853418,-17.706199,1.27706836,4.58760194,2.92934065,8.45104539e-05,0.855053698
72,-2.63853418,-13.6329249,1.27706836,3.55894634,2.27250889,0.000227268998,0.855053698
73,-2.63853418,-10.4729811,1.27706836,2.76094116,1.76295531,0.000416193469,0.855053698
74,-2.63853418,-8.02157615,1.27706836,2.1418688,1.36765644,0.000664516021,0.855053698
75,-2.63853418,-6.11983775,1.27706836,1.66160801,1.06099351,0.000979840842,0.855053698
76,-2.63853418,-4.64451687,1.27706836,1.28903375,0.82309211,0.00129033214,0.855053698
77,-2.63853418,-3.5,1.27706836,1,0.638534182,0.00152287686,0.855053698
78,-2.63853418,-2.5,1.27706836,1,0.638534182,0.00162752548,0.855053698
79,-2.63853418,-1.5,1.27706836,1,0.638534182,0.00150143646,0.855053698
80,-2.63853418,-0.5,1.27706836,1,0.638534182,0.000619248636,0.855053698
81,-1.5,-17.706199,1,4.58760194,2.29380097,8.50278823e-05,0.855053698
82,-1.5,-13.6329249,1,3.55894634,1.77947317,0.000255643984,0.855053698
83,-1.5,-10.4729811,1,2.76094116,1.38047058,0.000471857281,0.855053698
84,-1.5,-8.02157615,1,2.1418688,1.0709344,0.000789746216,0.855053698
85,-1.5,-6.11983775,1,1.66160801,0.830804003,0.00122647402,0.855053698
86,-1.5,-4.64451687,1,1.28903375,0.644516874,0.00179179867,0.855053698
87,-1.5,-3.5,1,1,0.5,0.00250852585,0.855053698
88,-1.5,-2.5,1,1,0.5,0.00329848753,0.855053698
89,-1.5,-1.5,1,1,0.5,0.00460909381,0.855053698
90,-1.5,-0.5,1,1,0.5,0.00591212962,0.855053698
91,-0.5,-17.706199,1,4.58760194,2.29380097,8.47542176e-05,0.855053698
92,-0.5,-13.6329249,1,3.55894634,1.77947317,0.000266548357,0.855053698
93,-0.5,-10.4729811,1,2.76094116,1.38047058,0.000498684641,0.855053698
94,-0.5,-8.02157615,1,2.1418688,1.0709344,0.000826751112,0.855053698
95,-0.5,-6.11983775,1,1.66160801,0.830804003,0.00129918282,0.855053698
96,-0.5,-4.64451687,1,1.28903375,0.644516874,0.00193295983,0.855053698
97,-0.5,-3.5,1,1,0.5,0.00266062839,0.855053698
98,-0.5,-2.5,1,1,0.5,0.00332554517,0.855053698
99,-0.5,-1.5,1,1,0.5,0.00316326498,0.855053698
100,-0.5,-0.5,1,1,0.5,0.00135594581,0.855053698
101,0.5,-17.706199,1,4.58760194,2.29380097,8.49223643e-05,0.855053698
102,0.5,-13.6329249,1,3.55894634,1.77947317,0.000266653579,0.855053698
103,0.5,-10.4729811,1,2.76094116,1.38047058,0.000498608108,0.855053698
104,0.5,-8.02157615,1,2.1418688,1.0709344,0.000826957399,0.855053698
105,0.5,-6.11983775,1,1.66160801,0.830804003,0.00129917158,0.855053698
106,0.5,-4.64451687,1,1.28903375,0.644516874,0.00193308494,0.855053698
107,0.5,-3.5,1,1,0.5,0.00266043735,0.855053698
108,0.5,-2.5,1,1,0.5,0.00332556035,0.855053698
109,0.5,-1.5,1,1,0.5,0.00316315146,0.855053698
110,0.5,-0.5,1,1,0.5,0.00135561185,0.855053698
111,1.5,-17.706199,1,4.58760194,2.29380097,8.50810967e-05,0.855053698
112,1.5,-13.6329249,1,3.55894634,1.77947317,0.000255583683,0.855053698
113,1.5,-10.4729811,1,2.76094116,1.38047058,0.000471975973,0.855053698
114,1.5,-8.02157615,1,2.1418688,1.0709344,0.000789500581,0.855053698
115,1.5,-6.11983775,1,1.66160801,0.830804003,0.00122638275,0.855053698
116,1.5,-4.64451687,1,1.28903375,0.644516874,0.00179191727,0.855053698
117,1.5,-3.5,1,1,0.5,0.00250875738,0.855053698
118,1.5,-2.5,1,1,0.5,0.0032987169,0.855053698
119,1.5,-1.5,1,1,0.5,0.00460896334,0.855053698
120,1.5,-0.5,1,1,0.5,0.00591210967,0.855053698
121,2.63853418,-17.706199,1.27706836,4.58760194,2.92934065,8.45406e-05,0.855053698
122,2.63853418,-13.6329249,1.27706836,3.55894634,2.27250889,0.000227258614,0.855053698
123,2.63853418,-10.4729811,1.27706836,2.76094116,1.76295531,0.00041596559,0.855053698
124,2.63853418,-8.02157615,1.27706836,2.1418688,1.36765644,0.000664653206,0.855053698
125,2.63853418,-6.11983775,1.27706836,1.66160801,1.06099351,0.000979967467,0.855053698
126,2.63853418,-4.64451687,1.27706836,1.28903375,0.82309211,0.00129044222,0.855053698
127,2.63853418,-3.5,1.27706836,1,0.638534182,0.00152271211,0.855053698
128,2.63853418,-2.5,1.27706836,1,0.638534182,0.00162777269,0.855053698
129,2.63853418,-1.5,1.27706836,1,0.638534182,0.0015015189,0.855053698
130,2.63853418,-0.5,1.27706836,1,0.638534182,0.000619147772,0.855053698
131,4.09252017,-17.706199,1.63090361,4.58760194,3.74096828,8.35761929e-05,0.855053698
132,4.09252017,-13.6329249,1.63090361,3.55894634,2.90214921,0.000179566566,0.855053698
133,4.09252017,-10.4729811,1.63090361,2.76094116,2.25141445,0.000313052625,0.855053698
134,4.09252017,-8.02157615,1.63090361,2.1418688,1.74659077,0.000463041448,0.855053698
135,4.09252017,-6.11983775,1.63090361,1.66160801,1.35496124,0.000576742546,0.855053698
136,4.09252017,-4.64451687,1.63090361,1.28903375,1.05114489,0.000616153205,0.855053698
137,4.09252017,-3.5,1.63090361,1,0.815451803,0.000655895689,0.855053698
138,4.09252017,-2.5,1.63090361,1,0.815451803,0.00058537564,0.855053698
139,4.09252017,-1.5,1.63090361,1,0.815451803,0.000304358783,0.855053698
140,4.09252017,-0.5,1.63090361,1,0.815451803,0.000201104347,0.855053698
141,5.94935967,-17.706199,2.0827754,4.58760194,4.77747223,7.27852365e-05,0.855053698
142,5.94935967,-13.6329249,2.0827754,3.55894634,3.70624294,0.000119538539,0.855053698
143,5.94935967,-10.4729811,2.0827754,2.76094116,2.87521017,0.000175844618,0.855053698
144,5.94935967,-8.02157615,2.0827754,2.1418688,2.23051582,0.000201788305,0.855053698
145,5.94935967,-6.11983775,2.0827754,1.66160801,1.73037814,0.000240516925,0.855053698
146,5.94935967,-4.64451687,2.0827754,1.28903375,1.34238389,0.000265423339,0.855053698
147,5.94935967,-3.5,2.0827754,1,1.0413877,0.000249976646,0.855053698
148,5.94935967,-2.5,2.0827754,1,1.0413877,0.000182589019,0.855053698
149,5.94935967,-1.5,2.0827754,1,1.0413877,9.48190237e-05,0.855053698
150,5.94935967,-0.5,2.0827754,1,1.0413877,4.21192697e-05,0.855053698
151,8.32067065,-17.706199,2.65984657,4.58760194,6.10115865,5.30490491e-05,0.855053698
152,8.32067065,-13.6329249,2.65984657,3.55894634,4.73312561,4.48973508e-05,0.855053698
153,8.32067065,-10.4729811,2.65984657,2.76094116,3.67183995,6.24833349e-05,0.855053698
154,8.32067065,-8.02157615,2.65984657,2.1418688,2.84852119,9.9487974e-05,0.855053698
155,8.32067065,-6.11983775,2.65984657,1.66160801,2.20981118,0.000124349967,0.855053698
156,8.32067065,-4.64451687,2.65984657,1.28903375,1.714316,0.000125828055,0.855053698
157,8.32067065,-3.5,2.65984657,1,1.32992329,0.000110838015,0.855053698
158,8.32067065,-2.5,2.65984657,1,1.32992329,9.02785778e-05,0.855053698
159,8.32067065,-1.5,2.65984657,1,1.32992329,6.17165932e-05,0.855053698
160,8.32067065,-0.5,2.65984657,1,1.32992329,2.57270967e-05,0.855053698
161,11.3489969,-17.706199,3.39680591,4.58760194,7.79159669,2.80992478e-05,0.855053698
162,11.3489969,-13.6329249,3.39680591,3.55894634,6.04452498,2.71449364e-05,0.855053698
163,11.3489969,-10.4729811,3.39680591,2.76094116,4.68919063,4.71524739e-05,0.855053698
164,11.3489969,-8.02157615,3.39680591,2.1418688,3.63775629,6.30869734e-05,0.855053698
165,11.3489969,-6.11983775,3.39680591,1.66160801,2.82207995,6.8901833e-05,0.855053698
166,11.3489969,-4.64451687,3.39680591,1.28903375,2.18929873,6.91967218e-05,0.855053698
167,11.3489969,-3.5,3.39680591,1,1.69840295,6.60723296e-05,0.855053698
168,11.3489969,-2.5,3.39680591,1,1.69840295,5.92247784e-05,0.855053698
169,11.3489969,-1.5,3.39680591,1,1.69840295,4.9374988e-05,0.855053698
170,11.3489969,-0.5,3.39680591,1,1.69840295,4.33968446e-05,0.855053698
171,15.2163765,-17.706199,4.33795336,4.58760194,9.95040164,1.18554169e-05,0.855053698
172,15.2163765,-13.6329249,4.33795336,3.55894634,7.71927162,2.09145999e-05,0.855053698
173,15.2163765,-10.4729811,4.33795336,2.76094116,5.98841701,2.96293169e-05,0.855053698
174,15.2163765,-8.02157615,4.33795336,2.1418688,4.64566348,3.6880154e-05,0.855053698
175,15.2163765,-6.11983775,4.33795336,1.66160801,3.60398902,4.16924198e-05,0.855053698
176,15.2163765,-4.64451687,4.33795336,1.28903375,2.79588414,4.40507989e-05,0.855053698
177,15.2163765,-3.5,4.33795336,1,2.16897668,4.47244615e-05,0.855053698
178,15.2163765,-2.5,4.33795336,1,2.16897668,4.56462367e-05,0.855053698
179,15.2163765,-1.5,4.33795336,1,2.16897668,4.70926068e-05,0.855053698
180,15.2163765,-0.5,4.33795336,1,2.16897668,4.89340683e-05,0.855053698
181,20.1552847,-17.706199,5.539863,4.58760194,12.7073431,5.66594805e-06,0.855053698
182,20.1552847,-13.6329249,5.539863,3.55894634,9.85803758,1.14303915e-05,0.855053698
183,20.1552847,-10.4729811,5.539863,2.76094116,7.64761791,1.79793984e-05,0.855053698
184,20.1552847,-8.02157615,5.539863,2.1418688,5.93282985,2.35288132e-05,0.855053698
185,20.1552847,-6.11983775,5.539863,1.66160801,4.60254036,2.79898932e-05,0.855053698
186,20.1552847,-4.64451687,5.539863,1.28903375,3.57053519,3.16689341e-05,0.855053698
187,20.1552847,-3.5,5.539863,1,2.7699315,3.47839215e-05,0.855053698
188,20.1552847,-2.5,5.539863,1,2.7699315,3.81478553e-05,0.855053698
189,20.1552847,-1.5,5.539863,1,2.7699315,4.19839022e-05,0.855053698
190,20.1552847,-0.5,5.539863,1,2.7699315,4.85722891e-05,0.855053698
191,26.4626081,-17.706199,7.07478378,4.58760194,16.2281459,1.2948166e-06,0.855053698
192,26.4626081,-13.6329249,7.07478378,3.55894634,12.5893879,6.0230635e-06,0.855053698
193,26.4626081,-10.4729811,7.07478378,2.76094116,9.76653089,1.18784035e-05,0.855053698
194,26.4626081,-8.02157615,7.07478378,2.1418688,7.57662931,1.74609011e-05,0.855053698
195,26.4626081,-6.11983775,7.07478378,1.66160801,5.87775869,2.20132494e-05,0.855053698
196,26.4626081,-4.64451687,7.07478378,1.28903375,4.55981753,2.5984074e-05,0.855053698
197,26.4626081,-3.5,7.07478378,1,3.53739189,2.94539551e-05,0.855053698
198,26.4626081,-2.5,7.07478378,1,3.53739189,3.31100632e-05,0.855053698
199,26.4626081,-1.5,7.07478378,1,3.53739189,3.75210262e-05,0.855053698
200,26.4626081,-0.5,7.07478378,1,3.53739189,4.38963958e-05,0.855053698
