# ADR90 WP-A2 END-OF-RUN plastic field, build 80e65a4de9bd6741261332b6f92de3a84bb4c642, leg h1.0_e0.6944, s/B=0.055300, mode WALL
ele,xc,zc,hx,hz,vol,eps_q_p,eta_grav
1,-26.4626081,-17.706199,7.07478378,4.58760194,16.2281459,4.07288489e-05,0.855053698
2,-26.4626081,-13.6329249,7.07478378,3.55894634,12.5893879,0.000129355684,0.855053698
3,-26.4626081,-10.4729811,7.07478378,2.76094116,9.76653089,0.000216143793,0.855053698
4,-26.4626081,-8.02157615,7.07478378,2.1418688,7.57662931,0.00028524133,0.855053698
5,-26.4626081,-6.11983775,7.07478378,1.66160801,5.87775869,0.000338436795,0.855053698
6,-26.4626081,-4.64451687,7.07478378,1.28903375,4.55981753,0.000380584209,0.855053698
7,-26.4626081,-3.5,7.07478378,1,3.53739189,0.000414219862,0.855053698
8,-26.4626081,-2.5,7.07478378,1,3.53739189,0.000446165461,0.855053698
9,-26.4626081,-1.5,7.07478378,1,3.53739189,0.000482001943,0.855053698
10,-26.4626081,-0.5,7.07478378,1,3.53739189,0.000524679088,0.855053698
11,-20.1552847,-17.706199,5.539863,4.58760194,12.7073431,0.000130008904,0.855053698
12,-20.1552847,-13.6329249,5.539863,3.55894634,9.85803758,0.000224450298,0.855053698
13,-20.1552847,-10.4729811,5.539863,2.76094116,7.64761791,0.000304314472,0.855053698
14,-20.1552847,-8.02157615,5.539863,2.1418688,5.93282985,0.000362738615,0.855053698
15,-20.1552847,-6.11983775,5.539863,1.66160801,4.60254036,0.000400914766,0.855053698
16,-20.1552847,-4.64451687,5.539863,1.28903375,3.57053519,0.000427018543,0.855053698
17,-20.1552847,-3.5,5.539863,1,2.7699315,0.000446110771,0.855053698
18,-20.1552847,-2.5,5.539863,1,2.7699315,0.000465307485,0.855053698
19,-20.1552847,-1.5,5.539863,1,2.7699315,0.000486560064,0.855053698
20,-20.1552847,-0.5,5.539863,1,2.7699315,0.0005251965,0.855053698
21,-15.2163765,-17.706199,4.33795336,4.58760194,9.95040164,0.000258504664,0.855053698
22,-15.2163765,-13.6329249,4.33795336,3.55894634,7.71927162,0.000363868,0.855053698
23,-15.2163765,-10.4729811,4.33795336,2.76094116,5.98841701,0.000464642915,0.855053698
24,-15.2163765,-8.02157615,4.33795336,2.1418688,4.64566348,0.000527347232,0.855053698
25,-15.2163765,-6.11983775,4.33795336,1.66160801,3.60398902,0.000551042602,0.855053698
26,-15.2163765,-4.64451687,4.33795336,1.28903375,2.79588414,0.000544818998,0.855053698
27,-15.2163765,-3.5,4.33795336,1,2.16897668,0.000523352379,0.855053698
28,-15.2163765,-2.5,4.33795336,1,2.16897668,0.000491971012,0.855053698
29,-15.2163765,-1.5,4.33795336,1,2.16897668,0.000462223243,0.855053698
30,-15.2163765,-0.5,4.33795336,1,2.16897668,0.000423107466,0.855053698
31,-11.3489969,-17.706199,3.39680591,4.58760194,7.79159669,0.000364501218,0.855053698
32,-11.3489969,-13.6329249,3.39680591,3.55894634,6.04452498,0.000467784052,0.855053698
33,-11.3489969,-10.4729811,3.39680591,2.76094116,4.68919063,0.000683252582,0.855053698
34,-11.3489969,-8.02157615,3.39680591,2.1418688,3.63775629,0.000814559895,0.855053698
35,-11.3489969,-6.11983775,3.39680591,1.66160801,2.82207995,0.000830898164,0.855053698
36,-11.3489969,-4.64451687,3.39680591,1.28903375,2.18929873,0.000772713095,0.855053698
37,-11.3489969,-3.5,3.39680591,1,1.69840295,0.000680594386,0.855053698
38,-11.3489969,-2.5,3.39680591,1,1.69840295,0.000567110407,0.855053698
39,-11.3489969,-1.5,3.39680591,1,1.69840295,0.000410971432,0.855053698
40,-11.3489969,-0.5,3.39680591,1,1.69840295,0.000265662697,0.855053698
41,-8.32067065,-17.706199,2.65984657,4.58760194,6.10115865,0.00048045014,0.855053698
42,-8.32067065,-13.6329249,2.65984657,3.55894634,4.73312561,0.000591508016,0.855053698
43,-8.32067065,-10.4729811,2.65984657,2.76094116,3.67183995,0.000882018663,0.855053698
44,-8.32067065,-8.02157615,2.65984657,2.1418688,2.84852119,0.00119321771,0.855053698
45,-8.32067065,-6.11983775,2.65984657,1.66160801,2.20981118,0.00133367173,0.855053698
46,-8.32067065,-4.64451687,2.65984657,1.28903375,1.714316,0.00125492855,0.855053698
47,-8.32067065,-3.5,2.65984657,1,1.32992329,0.0010210528,0.855053698
48,-8.32067065,-2.5,2.65984657,1,1.32992329,0.000714448703,0.855053698
49,-8.32067065,-1.5,2.65984657,1,1.32992329,0.000405334285,0.855053698
50,-8.32067065,-0.5,2.65984657,1,1.32992329,0.000211928474,0.855053698
51,-5.94935967,-17.706199,2.0827754,4.58760194,4.77747223,0.000568194718,0.855053698
52,-5.94935967,-13.6329249,2.0827754,3.55894634,3.70624294,0.000993371181,0.855053698
53,-5.94935967,-10.4729811,2.0827754,2.76094116,2.87521017,0.00154011827,0.855053698
54,-5.94935967,-8.02157615,2.0827754,2.1418688,2.23051582,0.00200422972,0.855053698
55,-5.94935967,-6.11983775,2.0827754,1.66160801,1.73037814,0.00233437891,0.855053698
56,-5.94935967,-4.64451687,2.0827754,1.28903375,1.34238389,0.00233017025,0.855053698
57,-5.94935967,-3.5,2.0827754,1,1.0413877,0.00204959176,0.855053698
58,-5.94935967,-2.5,2.0827754,1,1.0413877,0.00135084675,0.855053698
59,-5.94935967,-1.5,2.0827754,1,1.0413877,0.000452709846,0.855053698
60,-5.94935967,-0.5,2.0827754,1,1.0413877,0.00100602766,0.855053698
61,-4.09252017,-17.706199,1.63090361,4.58760194,3.74096828,0.000611395978,0.855053698
62,-4.09252017,-13.6329249,1.63090361,3.55894634,2.90214921,0.00135931888,0.855053698
63,-4.09252017,-10.4729811,1.63090361,2.76094116,2.25141445,0.00237938241,0.855053698
64,-4.09252017,-8.02157615,1.63090361,2.1418688,1.74659077,0.00355585793,0.855053698
65,-4.09252017,-6.11983775,1.63090361,1.66160801,1.35496124,0.00449399862,0.855053698
66,-4.09252017,-4.64451687,1.63090361,1.28903375,1.05114489,0.0048207554,0.855053698
67,-4.09252017,-3.5,1.63090361,1,0.815451803,0.00466818186,0.855053698
68,-4.09252017,-2.5,1.63090361,1,0.815451803,0.00392751393,0.855053698
69,-4.09252017,-1.5,1.63090361,1,0.815451803,0.00185003137,0.855053698
70,-4.09252017,-0.5,1.63090361,1,0.815451803,0.00208389953,0.855053698
71,-2.63853418,-17.706199,1.27706836,4.58760194,2.92934065,0.000617404091,0.855053698
72,-2.63853418,-13.6329249,1.27706836,3.55894634,2.27250889,0.00165583441,0.855053698
73,-2.63853418,-10.4729811,1.27706836,2.76094116,1.76295531,0.00300718794,0.855053698
74,-2.63853418,-8.02157615,1.27706836,2.1418688,1.36765644,0.00477296706,0.855053698
75,-2.63853418,-6.11983775,1.27706836,1.66160801,1.06099351,0.00685617542,0.855053698
76,-2.63853418,-4.64451687,1.27706836,1.28903375,0.82309211,0.00876020225,0.855053698
77,-2.63853418,-3.5,1.27706836,1,0.638534182,0.00976257628,0.855053698
78,-2.63853418,-2.5,1.27706836,1,0.638534182,0.0100283065,0.855053698
79,-2.63853418,-1.5,1.27706836,1,0.638534182,0.00840459785,0.855053698
80,-2.63853418,-0.5,1.27706836,1,0.638534182,0.00408939753,0.855053698
81,-1.5,-17.706199,1,4.58760194,2.29380097,0.000620594876,0.855053698
82,-1.5,-13.6329249,1,3.55894634,1.77947317,0.0018253824,0.855053698
83,-1.5,-10.4729811,1,2.76094116,1.38047058,0.00336176323,0.855053698
84,-1.5,-8.02157615,1,2.1418688,1.0709344,0.00552101774,0.855053698
85,-1.5,-6.11983775,1,1.66160801,0.830804003,0.00842050486,0.855053698
86,-1.5,-4.64451687,1,1.28903375,0.644516874,0.0119156857,0.855053698
87,-1.5,-3.5,1,1,0.5,0.0159276358,0.855053698
88,-1.5,-2.5,1,1,0.5,0.0199689575,0.855053698
89,-1.5,-1.5,1,1,0.5,0.0251809163,0.855053698
90,-1.5,-0.5,1,1,0.5,0.0299344914,0.855053698
91,-0.5,-17.706199,1,4.58760194,2.29380097,0.000617200113,0.855053698
92,-0.5,-13.6329249,1,3.55894634,1.77947317,0.00189480557,0.855053698
93,-0.5,-10.4729811,1,2.76094116,1.38047058,0.00351129532,0.855053698
94,-0.5,-8.02157615,1,2.1418688,1.0709344,0.00579335433,0.855053698
95,-0.5,-6.11983775,1,1.66160801,0.830804003,0.0088881136,0.855053698
96,-0.5,-4.64451687,1,1.28903375,0.644516874,0.0123711122,0.855053698
97,-0.5,-3.5,1,1,0.5,0.0153146777,0.855053698
98,-0.5,-2.5,1,1,0.5,0.0163135551,0.855053698
99,-0.5,-1.5,1,1,0.5,0.0131166861,0.855053698
100,-0.5,-0.5,1,1,0.5,0.00520626198,0.855053698
101,0.5,-17.706199,1,4.58760194,2.29380097,0.000617399353,0.855053698
102,0.5,-13.6329249,1,3.55894634,1.77947317,0.00189482961,0.855053698
103,0.5,-10.4729811,1,2.76094116,1.38047058,0.00351144557,0.855053698
104,0.5,-8.02157615,1,2.1418688,1.0709344,0.00579372297,0.855053698
105,0.5,-6.11983775,1,1.66160801,0.830804003,0.00888794063,0.855053698
106,0.5,-4.64451687,1,1.28903375,0.644516874,0.0123696052,0.855053698
107,0.5,-3.5,1,1,0.5,0.01531117,0.855053698
108,0.5,-2.5,1,1,0.5,0.0163146421,0.855053698
109,0.5,-1.5,1,1,0.5,0.0131196834,0.855053698
110,0.5,-0.5,1,1,0.5,0.00520652253,0.855053698
111,1.5,-17.706199,1,4.58760194,2.29380097,0.000620550783,0.855053698
112,1.5,-13.6329249,1,3.55894634,1.77947317,0.00182556792,0.855053698
113,1.5,-10.4729811,1,2.76094116,1.38047058,0.0033623047,0.855053698
114,1.5,-8.02157615,1,2.1418688,1.0709344,0.00552112452,0.855053698
115,1.5,-6.11983775,1,1.66160801,0.830804003,0.00842178917,0.855053698
116,1.5,-4.64451687,1,1.28903375,0.644516874,0.0119142122,0.855053698
117,1.5,-3.5,1,1,0.5,0.0159203441,0.855053698
118,1.5,-2.5,1,1,0.5,0.0199640102,0.855053698
119,1.5,-1.5,1,1,0.5,0.0251742473,0.855053698
120,1.5,-0.5,1,1,0.5,0.0299335641,0.855053698
121,2.63853418,-17.706199,1.27706836,4.58760194,2.92934065,0.000617538984,0.855053698
122,2.63853418,-13.6329249,1.27706836,3.55894634,2.27250889,0.00165623842,0.855053698
123,2.63853418,-10.4729811,1.27706836,2.76094116,1.76295531,0.00300744117,0.855053698
124,2.63853418,-8.02157615,1.27706836,2.1418688,1.36765644,0.00477297528,0.855053698
125,2.63853418,-6.11983775,1.27706836,1.66160801,1.06099351,0.00685614456,0.855053698
126,2.63853418,-4.64451687,1.27706836,1.28903375,0.82309211,0.00876182059,0.855053698
127,2.63853418,-3.5,1.27706836,1,0.638534182,0.00976122577,0.855053698
128,2.63853418,-2.5,1.27706836,1,0.638534182,0.0100330413,0.855053698
129,2.63853418,-1.5,1.27706836,1,0.638534182,0.00840470454,0.855053698
130,2.63853418,-0.5,1.27706836,1,0.638534182,0.00409199455,0.855053698
131,4.09252017,-17.706199,1.63090361,4.58760194,3.74096828,0.000611401292,0.855053698
132,4.09252017,-13.6329249,1.63090361,3.55894634,2.90214921,0.00135987005,0.855053698
133,4.09252017,-10.4729811,1.63090361,2.76094116,2.25141445,0.00238012794,0.855053698
134,4.09252017,-8.02157615,1.63090361,2.1418688,1.74659077,0.00355741217,0.855053698
135,4.09252017,-6.11983775,1.63090361,1.66160801,1.35496124,0.00449540933,0.855053698
136,4.09252017,-4.64451687,1.63090361,1.28903375,1.05114489,0.00482385015,0.855053698
137,4.09252017,-3.5,1.63090361,1,0.815451803,0.00466806508,0.855053698
138,4.09252017,-2.5,1.63090361,1,0.815451803,0.00392919685,0.855053698
139,4.09252017,-1.5,1.63090361,1,0.815451803,0.00184932559,0.855053698
140,4.09252017,-0.5,1.63090361,1,0.815451803,0.00208591246,0.855053698
141,5.94935967,-17.706199,2.0827754,4.58760194,4.77747223,0.000568355493,0.855053698
142,5.94935967,-13.6329249,2.0827754,3.55894634,3.70624294,0.000993107875,0.855053698
143,5.94935967,-10.4729811,2.0827754,2.76094116,2.87521017,0.00154024794,0.855053698
144,5.94935967,-8.02157615,2.0827754,2.1418688,2.23051582,0.00200473571,0.855053698
145,5.94935967,-6.11983775,2.0827754,1.66160801,1.73037814,0.00233509994,0.855053698
146,5.94935967,-4.64451687,2.0827754,1.28903375,1.34238389,0.00233137372,0.855053698
147,5.94935967,-3.5,2.0827754,1,1.0413877,0.00204946442,0.855053698
148,5.94935967,-2.5,2.0827754,1,1.0413877,0.00135005148,0.855053698
149,5.94935967,-1.5,2.0827754,1,1.0413877,0.000452137736,0.855053698
150,5.94935967,-0.5,2.0827754,1,1.0413877,0.00100693232,0.855053698
151,8.32067065,-17.706199,2.65984657,4.58760194,6.10115865,0.000480617846,0.855053698
152,8.32067065,-13.6329249,2.65984657,3.55894634,4.73312561,0.00059151792,0.855053698
153,8.32067065,-10.4729811,2.65984657,2.76094116,3.67183995,0.000881954092,0.855053698
154,8.32067065,-8.02157615,2.65984657,2.1418688,2.84852119,0.00119296662,0.855053698
155,8.32067065,-6.11983775,2.65984657,1.66160801,2.20981118,0.00133381483,0.855053698
156,8.32067065,-4.64451687,2.65984657,1.28903375,1.714316,0.00125502091,0.855053698
157,8.32067065,-3.5,2.65984657,1,1.32992329,0.00102117104,0.855053698
158,8.32067065,-2.5,2.65984657,1,1.32992329,0.000714660504,0.855053698
159,8.32067065,-1.5,2.65984657,1,1.32992329,0.000405404818,0.855053698
160,8.32067065,-0.5,2.65984657,1,1.32992329,0.000212386178,0.855053698
161,11.3489969,-17.706199,3.39680591,4.58760194,7.79159669,0.00036437422,0.855053698
162,11.3489969,-13.6329249,3.39680591,3.55894634,6.04452498,0.000467886311,0.855053698
163,11.3489969,-10.4729811,3.39680591,2.76094116,4.68919063,0.000683324191,0.855053698
164,11.3489969,-8.02157615,3.39680591,2.1418688,3.63775629,0.000814681797,0.855053698
165,11.3489969,-6.11983775,3.39680591,1.66160801,2.82207995,0.000830516688,0.855053698
166,11.3489969,-4.64451687,3.39680591,1.28903375,2.18929873,0.000772908307,0.855053698
167,11.3489969,-3.5,3.39680591,1,1.69840295,0.000680806102,0.855053698
168,11.3489969,-2.5,3.39680591,1,1.69840295,0.000567549299,0.855053698
169,11.3489969,-1.5,3.39680591,1,1.69840295,0.000410919011,0.855053698
170,11.3489969,-0.5,3.39680591,1,1.69840295,0.000266226193,0.855053698
171,15.2163765,-17.706199,4.33795336,4.58760194,9.95040164,0.000258500085,0.855053698
172,15.2163765,-13.6329249,4.33795336,3.55894634,7.71927162,0.000363832511,0.855053698
173,15.2163765,-10.4729811,4.33795336,2.76094116,5.98841701,0.000464804165,0.855053698
174,15.2163765,-8.02157615,4.33795336,2.1418688,4.64566348,0.000526962489,0.855053698
175,15.2163765,-6.11983775,4.33795336,1.66160801,3.60398902,0.00055101093,0.855053698
176,15.2163765,-4.64451687,4.33795336,1.28903375,2.79588414,0.000544445724,0.855053698
177,15.2163765,-3.5,4.33795336,1,2.16897668,0.000523349006,0.855053698
178,15.2163765,-2.5,4.33795336,1,2.16897668,0.000492068673,0.855053698
179,15.2163765,-1.5,4.33795336,1,2.16897668,0.000462113311,0.855053698
180,15.2163765,-0.5,4.33795336,1,2.16897668,0.000423330017,0.855053698
181,20.1552847,-17.706199,5.539863,4.58760194,12.7073431,0.000130014739,0.855053698
182,20.1552847,-13.6329249,5.539863,3.55894634,9.85803758,0.000224338998,0.855053698
183,20.1552847,-10.4729811,5.539863,2.76094116,7.64761791,0.000304330528,0.855053698
184,20.1552847,-8.02157615,5.539863,2.1418688,5.93282985,0.000362626368,0.855053698
185,20.1552847,-6.11983775,5.539863,1.66160801,4.60254036,0.000400870179,0.855053698
186,20.1552847,-4.64451687,5.539863,1.28903375,3.57053519,0.000426960923,0.855053698
187,20.1552847,-3.5,5.539863,1,2.7699315,0.000446219728,0.855053698
188,20.1552847,-2.5,5.539863,1,2.7699315,0.000465334581,0.855053698
189,20.1552847,-1.5,5.539863,1,2.7699315,0.000486582928,0.855053698
190,20.1552847,-0.5,5.539863,1,2.7699315,0.000525251364,0.855053698
191,26.4626081,-17.706199,7.07478378,4.58760194,16.2281459,4.06548872e-05,0.855053698
192,26.4626081,-13.6329249,7.07478378,3.55894634,12.5893879,0.000128874062,0.855053698
193,26.4626081,-10.4729811,7.07478378,2.76094116,9.76653089,0.000216041419,0.855053698
194,26.4626081,-8.02157615,7.07478378,2.1418688,7.57662931,0.000285361889,0.855053698
195,26.4626081,-6.11983775,7.07478378,1.66160801,5.87775869,0.000338481758,0.855053698
196,26.4626081,-4.64451687,7.07478378,1.28903375,4.55981753,0.000380535982,0.855053698
197,26.4626081,-3.5,7.07478378,1,3.53739189,0.00041423017,0.855053698
198,26.4626081,-2.5,7.07478378,1,3.53739189,0.000445987525,0.855053698
199,26.4626081,-1.5,7.07478378,1,3.53739189,0.000482089882,0.855053698
200,26.4626081,-0.5,7.07478378,1,3.53739189,0.000524669969,0.855053698
