# ADR90 WP-A2 tau=0 band, build cc4aa6db01c7ae86155b425182021722ab55db50 (expected any), leg h1.0_e0.6944
s_m,s_over_B,q_foot_kPa,q_base_kPa,ds_mm,relaxed,wall_s,implex_err_avg,implex_refusals,guard_floor,guard_f0,guard_hold,guard_res,guard_ctlf,substeps_tot,substeps_max,substeps_max_ele,substeps_ring_tot,substeps_ring_max,wall_step_s
2e-05,1e-05,1.20829922,-1.17098422,0.02,0,0.197574854,0,0,0,0,0,0,0,1328,38,100,374,28,0.197574854
4e-05,2e-05,1.8133506,-1.70718832,0.02,0,0.299974918,0,0,0,0,0,0,0,1164,14,90,304,14,0.102400064
6e-05,3e-05,2.36055952,-2.1883028,0.02,0,0.420594215,0,0,0,0,0,0,0,1072,15,90,290,15,0.120619297
8e-05,4e-05,2.80323856,-2.65088035,0.02,0,0.524176598,0,0,0,0,0,0,0,1008,15,90,236,15,0.103582382
0.0001,5e-05,3.25116322,-3.08759572,0.02,0,0.635983229,0,0,0,0,0,0,0,1036,15,90,224,15,0.111806631
0.00012,6e-05,3.67831948,-3.52035546,0.04,0,0.737039804,0,0,0,0,0,0,0,1080,15,90,222,15,0.101056576
0.00016,8e-05,4.52389983,-4.33605283,0.04,0,0.889952898,0,0,0,0,0,0,0,1984,29,90,454,29,0.152913094
0.0002,0.0001,5.29192188,-5.12144098,0.04,0,1.04460573,0,0,0,0,0,0,0,2048,28,90,434,28,0.154652834
0.00024,0.00012,6.02727364,-5.88795751,0.04,0,1.22874999,0,0,0,0,0,0,0,2092,28,90,442,28,0.184144258
0.00028,0.00014,6.78657569,-6.63759948,0.04,0,1.39098382,0,0,0,0,0,0,0,2132,29,90,474,29,0.162233829
0.00032,0.00016,7.54973741,-7.36331693,0.04,0,1.55563188,0,0,0,0,0,0,0,2166,28,90,444,28,0.164648056
0.00036,0.00018,8.23249044,-8.08758137,0.08,0,1.72509027,0,0,0,0,0,0,0,2276,27,90,462,27,0.169458389
0.00044,0.00022,9.62433852,-9.50176215,0.08,0,2.04307699,0,0,0,0,0,0,0,3885,51,90,847,51,0.317986727
0.00052,0.00026,11.0032505,-10.8907815,0.08,0,2.67374539,0,0,0,0,0,0,0,3912,50,90,883,50,0.630668402
0.0006,0.0003,12.3771749,-12.2638271,0.08,0,3.32019281,0,0,0,0,0,0,0,4010,50,90,892,50,0.64644742
0.00068,0.00034,13.7362849,-13.6076395,0.08,0,3.96397042,0,0,0,0,0,0,0,4098,49,120,882,49,0.643777609
0.00076,0.00038,15.0337254,-14.932081,0.08,0,4.66198397,0,0,0,0,0,0,0,4160,47,90,905,47,0.698013544
0.00084,0.00042,16.3531819,-16.2370139,0.16,0,5.34020066,0,0,0,0,0,0,0,4221,46,90,913,46,0.678216696
0.001,0.0005,18.8371914,-18.8213189,0.16,0,6.94352865,0,0,0,0,0,0,0,7455,86,90,1704,85,1.60332799
0.00116,0.00058,21.3711928,-21.3728682,0.16,0,9.35850358,0,0,0,0,0,0,0,7319,83,90,1720,83,2.41497493
0.00132,0.00066,23.955335,-23.8882157,0.16,0,10.5613129,0,0,0,0,0,0,0,7384,79,90,1714,79,1.20280933
0.00148,0.00074,26.3688641,-26.361617,0.16,0,12.2950425,0,0,0,0,0,0,0,7521,77,90,1723,77,1.7337296
0.00164,0.00082,28.8173349,-28.8659404,0.16,0,14.4575696,0,0,0,0,0,0,0,7562,75,120,1742,75,2.16252708
0.0018,0.0009,31.2892677,-31.2547378,0.32,0,15.8249986,0,0,0,0,0,0,0,7542,71,120,1698,71,1.36742902
0.00212,0.00106,36.0509649,-36.0402463,0.32,0,19.0390515,0,0,0,0,0,0,0,13892,133,120,3333,133,3.21405292
0.00244,0.00122,40.7744825,-40.7667102,0.32,0,22.7245412,0,0,0,0,0,0,0,13865,126,90,3331,125,3.68548965
0.00276,0.00138,45.455666,-45.4490361,0.32,0,26.3746963,0,0,0,0,0,0,0,13941,119,90,3325,118,3.65015507
0.00308,0.00154,50.0857647,-50.0757391,0.32,0,30.0646133,0,0,0,0,0,0,0,14070,114,90,3340,114,3.68991709
0.0034,0.0017,54.6732882,-54.6630056,0.32,0,32.868391,0,0,0,0,0,0,0,14110,109,90,3319,109,2.80377769
0.00372,0.00186,59.2173765,-59.2046376,0.64,0,35.5397615,0,0,0,0,0,0,0,14174,107,89,3321,107,2.67137051
0.00436,0.00218,68.1931622,-68.1835789,0.64,0,42.3299665,0,0,0,0,0,0,0,26660,210,89,6386,207,6.790205
0.005,0.0025,77.075665,-77.0581813,0.64,0,53.3380113,0,0,0,0,0,0,0,26795,204,119,6326,204,11.0080447
0.00564,0.00282,85.7480163,-85.7498177,0.64,0,64.9449432,0,0,0,0,0,0,0,27063,202,89,6301,202,11.6069319
0.00628,0.00314,94.4562018,-94.4289842,0.64,0,76.4171665,0,0,0,0,0,0,0,26931,197,119,6204,197,11.4722233
0.00692,0.00346,103.105923,-103.022663,0.64,0,87.7145014,0,0,0,0,0,0,0,26911,194,89,6139,193,11.2973349
0.00756,0.00378,111.606972,-111.579557,1.28,0,99.2311134,0,0,0,0,0,0,0,26945,191,89,6099,190,11.5166121
0.00884,0.00442,128.616494,-128.610697,1.28,0,123.223985,0,0,0,0,0,0,0,51202,362,89,11680,362,23.9928715
0.01012,0.00506,145.290066,-145.253926,1.28,0,141.685093,0,0,0,0,0,0,0,51172,351,119,11527,351,18.4611084
0.0114,0.0057,161.946087,-161.917974,1.28,0,158.474677,0,0,0,0,0,0,0,50807,339,89,11259,338,16.7895834
0.01268,0.00634,178.22735,-178.198319,1.28,0,175.452865,0,0,0,0,0,0,0,50785,335,119,11295,335,16.9781878
0.01396,0.00698,194.509939,-194.456316,1.28,0,192.856241,0,0,0,0,0,0,0,50366,326,119,11119,326,17.4033761
0.01524,0.00762,210.728126,-210.705982,2.56,0,215.025204,0,0,0,0,0,0,0,50132,318,119,11005,318,22.168963
0.0178,0.0089,243.254267,-243.00903,2.56,1,266.11477,0,0,0,0,0,0,0,94749,575,89,20286,568,51.0895665
0.02036,0.01018,275.181266,-274.839756,2.56,1,316.61049,0,0,0,0,0,0,0,95281,582,119,20607,582,50.4957201
0.02292,0.01146,306.203019,-306.214327,2.56,0,352.766394,0,0,0,0,0,0,0,96369,589,119,21667,589,36.1559041
0.02548,0.01274,337.626172,-337.492347,2.56,0,389.783999,0,0,0,0,0,0,0,93970,561,130,20307,561,37.0176048
0.02804,0.01402,368.860723,-368.883099,2.56,0,426.283207,0,0,0,0,0,0,0,93109,586,130,19870,586,36.4992075
0.0306,0.0153,400.003457,-399.928148,5,0,463.337254,0,0,0,0,0,0,0,92809,644,130,19816,644,37.0540469
0.0356,0.0178,461.267567,-460.736373,5,1,557.824717,0,0,0,0,0,0,0,172845,1271,130,36271,1271,94.4874637
0.0406,0.0203,521.006436,-520.832084,5,1,653.379065,0,0,0,0,0,0,0,175399,1775,130,38846,1775,95.5543473
0.0456,0.0228,581.080058,-580.827194,5,1,689.991633,0,0,0,0,0,0,0,178306,2811,130,42133,2811,36.6125689
0.0506,0.0253,640.677834,-640.814462,5,1,757.461576,0,0,0,0,0,0,0,195906,12997,130,59842,12997,67.469943
0.051225,0.0256125,648.162595,-648.204256,0.625,1,786.153125,0,0,0,0,0,0,0,37740,6693,130,18057,6693,28.6915488
0.05185,0.025925,655.64114,-656.149986,0.625,1,807.926596,0,0,0,0,0,0,0,33373,4492,130,13929,4492,21.7734704
0.052475,0.0262375,663.266273,-663.805499,0.625,1,831.204525,0,0,0,0,0,0,0,36097,5985,130,16711,5985,23.2779291
0.0531,0.02655,670.46227,-670.740547,0.625,1,855.473551,0,0,0,0,0,0,0,34600,4098,130,14299,4098,24.269026
0.053725,0.0268625,677.667078,-678.187139,0.625,1,881.234825,0,0,0,0,0,0,0,35264,4779,130,15615,4779,25.7612739
0.05435,0.027175,685.504229,-686.302672,1.25,1,906.282221,0,0,0,0,0,0,0,35406,4805,130,15678,4805,25.0473962
0.054975,0.0274875,693.005819,-693.778362,0.625,1,922.88361,0,0,0,0,0,0,0,40501,5593,130,18096,5593,16.6013894
0.0556,0.0278,700.139754,-700.46824,0.625,1,941.892601,0,0,0,0,0,0,0,43764,4414,130,16975,4414,19.008991
0.056225,0.0281125,708.36113,-709.13759,0.625,1,960.386443,0,0,0,0,0,0,0,58193,8618,80,22090,5845,18.4938416
0.0565375,0.02826875,713.765777,-713.735194,0.3125,1,997.257462,0,0,0,0,0,0,0,51895,13954,130,41541,13954,36.8710189
0.05685,0.028425,718.279308,-718.324579,0.3125,1,1022.8399,0,0,0,0,0,0,0,58536,13772,130,48224,13772,25.5824378
0.0571625,0.02858125,723.577933,-723.334014,0.3125,1,1045.96326,0,0,0,0,0,0,0,56092,14281,130,45288,14281,23.1233623
0.057475,0.0287375,722.99646,-723.233685,0.3125,1,1055.22085,0,0,0,0,0,0,0,44762,12464,130,28235,12464,9.25759172
0.0577875,0.02889375,729.855642,-729.465555,0.3125,1,1057.66746,0,0,0,0,0,0,0,45764,16441,130,35064,16441,2.4466083
0.0581,0.02905,733.924054,-733.841956,0.625,1,1064.8783,0,0,0,0,0,0,0,42750,14650,130,32257,14650,7.21083403
0.0584125,0.02920625,737.958796,-738.036571,0.3125,1,1069.4826,0,0,0,0,0,0,0,44573,14840,130,33260,14840,4.60430789
0.058725,0.0293625,743.828799,-743.577867,0.3125,1,1071.36233,0,0,0,0,0,0,0,48678,15863,130,37279,15863,1.87972355
0.05888125,0.029440625,745.180121,-745.163561,0.15625,1,1077.98545,0,0,0,0,0,0,0,62156,15666,130,54688,15666,6.62312245
0.0590375,0.02951875,747.006485,-746.611014,0.15625,1,1092.99519,0,0,0,0,0,0,0,29251,10642,130,22475,10642,15.0097418
0.05919375,0.029596875,750.569697,-750.802459,0.15625,1,1109.73909,0,0,0,0,0,0,0,17461,5592,130,12013,5592,16.7438989
0.05935,0.029675,750.624147,-750.748506,0.15625,1,1127.57603,0,0,0,0,0,0,0,29992,10795,130,22915,10795,17.836942
0.05950625,0.029753125,754.435748,-754.555294,0.15625,1,1139.54951,0,0,0,0,0,0,0,17365,5553,130,11924,5553,11.9734797
0.0596625,0.02983125,754.410288,-754.663081,0.3125,1,1155.64925,0,0,0,0,0,0,0,28396,9958,130,21275,9958,16.0997348
0.059975,0.0299875,758.249265,-758.563179,0.3125,1,1166.69675,0,0,0,0,0,0,0,35438,10962,130,23812,10962,11.0475078
0.0602875,0.03014375,761.925931,-762.3259,0.3125,1,1168.74548,0,0,0,0,0,0,0,35062,11585,130,25106,11585,2.04872489
0.0606,0.0303,766.294633,-766.307572,0.3125,1,1170.93438,0,0,0,0,0,0,0,46618,11653,130,25250,11653,2.18890071
0.0609125,0.03045625,770.083609,-770.363451,0.3125,1,1189.01269,0,0,0,0,0,0,0,52300,11781,130,25604,11781,18.0783126
0.061225,0.0306125,773.972375,-774.252072,0.3125,1,1206.32643,0,0,0,0,0,0,0,46190,11694,130,25276,11694,17.313736
0.0615375,0.03076875,777.85916,-778.200727,0.625,1,1208.67966,0,0,0,0,0,0,0,50789,11810,130,25638,11810,2.35322714
0.0621625,0.03108125,782.565522,-782.925799,0.625,1,1214.56859,0,0,0,0,0,0,0,78182,16792,130,37909,16792,5.88893723
0.062475,0.0312375,789.106339,-789.140663,0.3125,1,1221.2567,0,0,0,0,0,0,0,69225,16163,80,23394,10891,6.68811107
0.0627875,0.03139375,793.239117,-793.585236,0.3125,1,1223.88988,0,0,0,0,0,0,0,71023,15921,80,24520,11316,2.63317275
0.0631,0.03155,797.529314,-797.746077,0.3125,1,1226.66251,0,0,0,0,0,0,0,74591,12251,80,25699,11861,2.77262807
0.0634125,0.03170625,801.317545,-801.586085,0.3125,1,1229.46903,0,0,0,0,0,0,0,66758,11807,130,25532,11807,2.80652404
0.063725,0.0318625,805.89097,-805.623026,0.3125,1,1232.9168,0,0,0,0,0,0,0,96548,17046,80,25221,11643,3.44777441
0.0640375,0.03201875,809.248823,-809.608897,0.625,1,1235.98402,0,0,0,0,0,0,0,82111,15494,80,25694,11846,3.06722045
0.06435,0.032175,813.60779,-813.580749,0.3125,1,1243.24535,0,0,0,0,0,0,0,92142,17080,80,25730,11853,7.26132298
0.0646625,0.03233125,817.7229,-817.625048,0.3125,1,1252.75645,0,0,0,0,0,0,0,89379,16317,80,25110,11576,9.51109982
0.064975,0.0324875,821.336749,-821.643039,0.3125,1,1255.7006,0,0,0,0,0,0,0,87135,16041,80,25902,11929,2.94414926
0.0652875,0.03264375,825.149874,-825.554094,0.3125,1,1259.70973,0,0,0,0,0,0,0,88574,16546,80,25345,11665,4.00913095
0.0656,0.0328,829.218703,-829.488979,0.3125,1,1262.81635,0,0,0,0,0,0,0,90688,16984,80,24904,11432,3.10662317
0.0659125,0.03295625,833.031724,-833.494343,0.625,1,1266.92336,0,0,0,0,0,0,0,88916,16680,80,25074,11538,4.1070087
0.066225,0.0331125,836.975486,-837.427053,0.3125,1,1274.49062,0,0,0,0,0,0,0,89521,16803,80,25037,11515,7.56726384
0.0665375,0.03326875,840.932322,-841.372901,0.3125,1,1278.49027,0,0,0,0,0,0,0,91032,17209,80,25026,11498,3.99964762
0.06685,0.033425,844.839646,-845.336711,0.3125,1,1282.46021,0,0,0,0,0,0,0,90474,17150,80,24642,11321,3.9699378
0.06700625,0.033503125,847.339831,-846.911364,0.15625,1,1315.17417,0,0,0,0,0,0,0,63547,12350,80,17766,8177,32.7139578
0.0671625,0.03358125,850.744924,-851.34368,0.15625,1,1325.47294,0,0,0,0,0,0,0,43939,7745,80,12231,5658,10.2987754
0.06731875,0.033659375,849.617655,-849.095543,0.15625,1,1339.67145,0,0,0,0,0,0,0,54671,10749,80,13600,6074,14.1985087
0.067475,0.0337375,854.467466,-854.81276,0.15625,1,1352.51413,0,0,0,0,0,0,0,62067,14754,80,12653,5894,12.8426809
0.06763125,0.033815625,853.917781,-852.970397,0.15625,1,1358.34553,0,0,0,0,0,0,0,76830,18831,80,12387,5445,5.83139586
0.0677875,0.03389375,858.587997,-858.947112,0.3125,1,1371.47563,0,0,0,0,0,0,0,40129,7120,80,12779,5954,13.1301045
0.06794375,0.033971875,857.864836,-857.025834,0.15625,1,1397.14593,0,0,0,0,0,0,0,54485,10457,80,13353,5937,25.6703029
0.0681,0.03405,862.681063,-863.273713,0.15625,1,1411.31652,0,0,0,0,0,0,0,35712,6195,80,12092,5641,14.1705825
0.06825625,0.034128125,861.879286,-860.995187,0.15625,1,1430.08209,0,0,0,0,0,0,0,46695,9796,80,12752,5637,18.7655706
0.0684125,0.03420625,866.886223,-867.426853,0.15625,1,1446.32649,0,0,0,0,0,0,0,36298,6350,80,11940,5547,16.2443993
0.06856875,0.034284375,867.924704,-867.832232,0.15625,1,1463.05701,0,0,0,0,0,0,0,51812,10412,80,14655,6641,16.7305219
0.068725,0.0343625,869.803474,-869.783555,0.3125,1,1479.20772,0,0,0,0,0,0,0,43790,8390,80,13920,6361,16.1507154
0.0690375,0.03451875,873.471979,-873.255084,0.3125,1,1482.83023,0,0,0,0,0,0,0,48346,9946,80,18741,8401,3.62250543
0.06935,0.034675,878.289374,-878.431285,0.3125,1,1510.27466,0,0,0,0,0,0,0,53289,11235,80,21619,9827,27.4444313
0.0696625,0.03483125,882.469323,-882.705888,0.3125,1,1512.97662,0,0,0,0,0,0,0,57644,12942,80,22432,10202,2.70196366
0.069975,0.0349875,886.643327,-887.253222,0.3125,1,1529.66287,0,0,0,0,0,0,0,57773,12794,80,22814,10406,16.686249
0.0702875,0.03514375,891.305429,-891.564082,0.3125,1,1532.05244,0,0,0,0,0,0,0,59658,13164,80,23920,10918,2.38957
0.0706,0.0353,895.361972,-895.829249,0.625,1,1555.91107,0,0,0,0,0,0,0,60627,13461,80,24146,11056,23.8586266
0.0709125,0.03545625,899.646875,-900.189389,0.3125,1,1575.98195,0,0,0,0,0,0,0,61167,13636,80,24221,11075,20.0708828
0.071225,0.0356125,904.042462,-904.46375,0.3125,1,1601.81799,0,0,0,0,0,0,0,60617,13418,80,24143,11037,25.8360343
0.0715375,0.03576875,908.448097,-908.757349,0.3125,1,1625.41154,0,0,0,0,0,0,0,60764,13505,80,24181,11045,23.5935483
0.07185,0.035925,912.568994,-912.92742,0.3125,1,1654.49784,0,0,0,0,0,0,0,62988,13659,80,26030,11962,29.0863025
0.0721625,0.03608125,911.481077,-911.85749,0.3125,1,1677.22364,0,0,0,0,0,0,0,52602,10955,80,18065,7426,22.7258019
0.072475,0.0362375,919.5769,-919.337384,0.625,1,1703.76844,0,0,0,0,0,0,0,52011,11482,80,18954,8591,26.544795
0.0727875,0.03639375,924.162848,-924.309934,0.3125,1,1710.87714,0,0,0,0,0,0,0,55290,12270,80,21509,9800,7.10870099
0.0731,0.03655,928.892418,-929.01,0.3125,1,1728.36401,0,0,0,0,0,0,0,58930,12872,80,23812,10901,17.4868782
0.0734125,0.03670625,933.494391,-933.399875,0.3125,1,1742.72153,0,0,0,0,0,0,0,61973,13658,80,25155,11553,14.3575201
0.073725,0.0368625,932.52342,-932.911719,0.3125,1,1762.64472,0,0,0,0,0,0,0,56291,11121,80,21686,9367,19.9231856
0.0740375,0.03701875,940.770526,-940.441764,0.3125,1,1785.68692,0,0,0,0,0,0,0,56932,12123,80,22697,10474,23.0421968
0.07435,0.037175,945.217628,-945.194416,0.625,1,1797.71511,0,0,0,0,0,0,0,55836,12153,80,22212,10148,12.028198
0.0746625,0.03733125,949.668073,-949.825073,0.3125,1,1820.82296,0,0,0,0,0,0,0,58886,12900,80,23684,10867,23.1078491
0.074975,0.0374875,954.091932,-954.31534,0.3125,1,1841.03748,0,0,0,0,0,0,0,61757,13251,80,25777,11913,20.2145114
0.0752875,0.03764375,958.564976,-958.920256,0.3125,1,1868.31734,0,0,0,0,0,0,0,60243,12862,80,24956,11483,27.2798648
0.0756,0.0378,962.796627,-963.051525,0.3125,1,1884.49863,0,0,0,0,0,0,0,60940,13090,80,25152,11550,16.1812916
0.0759125,0.03795625,961.735678,-962.272298,0.3125,1,1899.68943,0,0,0,0,0,0,0,52532,10845,80,18340,7690,15.1907952
0.076225,0.0381125,970.173105,-969.861089,0.625,1,1908.10901,0,0,0,0,0,0,0,58507,12392,80,23728,10965,8.41958261
0.07685,0.038425,974.928612,-975.093581,0.625,1,1913.65332,0,0,0,0,0,0,0,89413,18203,80,34375,15041,5.5443058
0.0771625,0.03858125,982.873244,-982.23525,0.3125,1,1931.62431,0,0,0,0,0,0,0,53651,10788,130,23333,10788,17.970998
0.077475,0.0387375,986.853215,-986.970455,0.3125,1,1959.38563,0,0,0,0,0,0,0,58717,13033,80,23197,10657,27.7613122
0.0777875,0.03889375,991.485602,-991.6804,0.3125,1,2003.95584,0,0,0,0,0,0,0,59508,12886,80,24445,11249,44.5702183
