# ADR90 WP-A2 plastic field at CHECKPOINT s/B=0.02 (actual 0.020100), build afb95c40c9e3da1cc97d6aabe8168644c53d0e82 (expected afb95c40c9e3da1cc97d6aabe8168644c53d0e82), leg h1.0_e0.6944, q_foot=488.4870 kPa
ele,xc,zc,hx,hz,vol,eps_q_p,eta_grav
1,-26.4626081,-17.706199,7.07478378,4.58760194,16.2281459,5.32415407e-06,0.855053698
2,-26.4626081,-13.6329249,7.07478378,3.55894634,12.5893879,2.09240501e-05,0.855053698
3,-26.4626081,-10.4729811,7.07478378,2.76094116,9.76653089,3.89162009e-05,0.855053698
4,-26.4626081,-8.02157615,7.07478378,2.1418688,7.57662931,5.49442056e-05,0.855053698
5,-26.4626081,-6.11983775,7.07478378,1.66160801,5.87775869,6.85270187e-05,0.855053698
6,-26.4626081,-4.64451687,7.07478378,1.28903375,4.55981753,7.98858087e-05,0.855053698
7,-26.4626081,-3.5,7.07478378,1,3.53739189,8.9513097e-05,0.855053698
8,-26.4626081,-2.5,7.07478378,1,3.53739189,9.88540273e-05,0.855053698
9,-26.4626081,-1.5,7.07478378,1,3.53739189,0.000110290834,0.855053698
10,-26.4626081,-0.5,7.07478378,1,3.53739189,0.000125467427,0.855053698
11,-20.1552847,-17.706199,5.539863,4.58760194,12.7073431,1.96846269e-05,0.855053698
12,-20.1552847,-13.6329249,5.539863,3.55894634,9.85803758,3.79634309e-05,0.855053698
13,-20.1552847,-10.4729811,5.539863,2.76094116,7.64761791,5.76831011e-05,0.855053698
14,-20.1552847,-8.02157615,5.539863,2.1418688,5.93282985,7.42959913e-05,0.855053698
15,-20.1552847,-6.11983775,5.539863,1.66160801,4.60254036,8.68666697e-05,0.855053698
16,-20.1552847,-4.64451687,5.539863,1.28903375,3.57053519,9.68679038e-05,0.855053698
17,-20.1552847,-3.5,5.539863,1,2.7699315,0.000105053864,0.855053698
18,-20.1552847,-2.5,5.539863,1,2.7699315,0.00011297811,0.855053698
19,-20.1552847,-1.5,5.539863,1,2.7699315,0.00012326339,0.855053698
20,-20.1552847,-0.5,5.539863,1,2.7699315,0.000137969328,0.855053698
21,-15.2163765,-17.706199,4.33795336,4.58760194,9.95040164,4.21479286e-05,0.855053698
22,-15.2163765,-13.6329249,4.33795336,3.55894634,7.71927162,6.77512377e-05,0.855053698
23,-15.2163765,-10.4729811,4.33795336,2.76094116,5.98841701,9.71822923e-05,0.855053698
24,-15.2163765,-8.02157615,4.33795336,2.1418688,4.64566348,0.000118046113,0.855053698
25,-15.2163765,-6.11983775,4.33795336,1.66160801,3.60398902,0.000129379512,0.855053698
26,-15.2163765,-4.64451687,4.33795336,1.28903375,2.79588414,0.000132617999,0.855053698
27,-15.2163765,-3.5,4.33795336,1,2.16897668,0.000132201399,0.855053698
28,-15.2163765,-2.5,4.33795336,1,2.16897668,0.000131232394,0.855053698
29,-15.2163765,-1.5,4.33795336,1,2.16897668,0.00013299656,0.855053698
30,-15.2163765,-0.5,4.33795336,1,2.16897668,0.000134009261,0.855053698
31,-11.3489969,-17.706199,3.39680591,4.58760194,7.79159669,5.74962023e-05,0.855053698
32,-11.3489969,-13.6329249,3.39680591,3.55894634,6.04452498,9.95972491e-05,0.855053698
33,-11.3489969,-10.4729811,3.39680591,2.76094116,4.68919063,0.000156450896,0.855053698
34,-11.3489969,-8.02157615,3.39680591,2.1418688,3.63775629,0.000193216514,0.855053698
35,-11.3489969,-6.11983775,3.39680591,1.66160801,2.82207995,0.00020574489,0.855053698
36,-11.3489969,-4.64451687,3.39680591,1.28903375,2.18929873,0.000202314401,0.855053698
37,-11.3489969,-3.5,3.39680591,1,1.69840295,0.000187600811,0.855053698
38,-11.3489969,-2.5,3.39680591,1,1.69840295,0.000163116717,0.855053698
39,-11.3489969,-1.5,3.39680591,1,1.69840295,0.000129526547,0.855053698
40,-11.3489969,-0.5,3.39680591,1,1.69840295,0.0001027317,0.855053698
41,-8.32067065,-17.706199,2.65984657,4.58760194,6.10115865,7.11626192e-05,0.855053698
42,-8.32067065,-13.6329249,2.65984657,3.55894634,4.73312561,0.000122627122,0.855053698
43,-8.32067065,-10.4729811,2.65984657,2.76094116,3.67183995,0.000195667098,0.855053698
44,-8.32067065,-8.02157615,2.65984657,2.1418688,2.84852119,0.000294063302,0.855053698
45,-8.32067065,-6.11983775,2.65984657,1.66160801,2.20981118,0.000347884981,0.855053698
46,-8.32067065,-4.64451687,2.65984657,1.28903375,1.714316,0.000337407494,0.855053698
47,-8.32067065,-3.5,2.65984657,1,1.32992329,0.00029072139,0.855053698
48,-8.32067065,-2.5,2.65984657,1,1.32992329,0.000227753804,0.855053698
49,-8.32067065,-1.5,2.65984657,1,1.32992329,0.000147495259,0.855053698
50,-8.32067065,-0.5,2.65984657,1,1.32992329,6.06504625e-05,0.855053698
51,-5.94935967,-17.706199,2.0827754,4.58760194,4.77747223,0.000144359734,0.855053698
52,-5.94935967,-13.6329249,2.0827754,3.55894634,3.70624294,0.000282449293,0.855053698
53,-5.94935967,-10.4729811,2.0827754,2.76094116,2.87521017,0.000430912235,0.855053698
54,-5.94935967,-8.02157615,2.0827754,2.1418688,2.23051582,0.000529045245,0.855053698
55,-5.94935967,-6.11983775,2.0827754,1.66160801,1.73037814,0.000648124782,0.855053698
56,-5.94935967,-4.64451687,2.0827754,1.28903375,1.34238389,0.000684780485,0.855053698
57,-5.94935967,-3.5,2.0827754,1,1.0413877,0.000608249808,0.855053698
58,-5.94935967,-2.5,2.0827754,1,1.0413877,0.000423283898,0.855053698
59,-5.94935967,-1.5,2.0827754,1,1.0413877,0.000189787507,0.855053698
60,-5.94935967,-0.5,2.0827754,1,1.0413877,0.00011752411,0.855053698
61,-4.09252017,-17.706199,1.63090361,4.58760194,3.74096828,0.000166260288,0.855053698
62,-4.09252017,-13.6329249,1.63090361,3.55894634,2.90214921,0.000391053635,0.855053698
63,-4.09252017,-10.4729811,1.63090361,2.76094116,2.25141445,0.000716243912,0.855053698
64,-4.09252017,-8.02157615,1.63090361,2.1418688,1.74659077,0.00106899725,0.855053698
65,-4.09252017,-6.11983775,1.63090361,1.66160801,1.35496124,0.00134650196,0.855053698
66,-4.09252017,-4.64451687,1.63090361,1.28903375,1.05114489,0.00147415325,0.855053698
67,-4.09252017,-3.5,1.63090361,1,0.815451803,0.00154237637,0.855053698
68,-4.09252017,-2.5,1.63090361,1,0.815451803,0.00135215849,0.855053698
69,-4.09252017,-1.5,1.63090361,1,0.815451803,0.000682365501,0.855053698
70,-4.09252017,-0.5,1.63090361,1,0.815451803,0.000800033798,0.855053698
71,-2.63853418,-17.706199,1.27706836,4.58760194,2.92934065,0.000174365393,0.855053698
72,-2.63853418,-13.6329249,1.27706836,3.55894634,2.27250889,0.000484346034,0.855053698
73,-2.63853418,-10.4729811,1.27706836,2.76094116,1.76295531,0.000918733801,0.855053698
74,-2.63853418,-8.02157615,1.27706836,2.1418688,1.36765644,0.00147108316,0.855053698
75,-2.63853418,-6.11983775,1.27706836,1.66160801,1.06099351,0.0021703332,0.855053698
76,-2.63853418,-4.64451687,1.27706836,1.28903375,0.82309211,0.00275617531,0.855053698
77,-2.63853418,-3.5,1.27706836,1,0.638534182,0.00312684968,0.855053698
78,-2.63853418,-2.5,1.27706836,1,0.638534182,0.00354129625,0.855053698
79,-2.63853418,-1.5,1.27706836,1,0.638534182,0.00301020853,0.855053698
80,-2.63853418,-0.5,1.27706836,1,0.638534182,0.00117696583,0.855053698
81,-1.5,-17.706199,1,4.58760194,2.29380097,0.000177253069,0.855053698
82,-1.5,-13.6329249,1,3.55894634,1.77947317,0.000538203274,0.855053698
83,-1.5,-10.4729811,1,2.76094116,1.38047058,0.00101854281,0.855053698
84,-1.5,-8.02157615,1,2.1418688,1.0709344,0.00172675625,0.855053698
85,-1.5,-6.11983775,1,1.66160801,0.830804003,0.0026746793,0.855053698
86,-1.5,-4.64451687,1,1.28903375,0.644516874,0.00395525449,0.855053698
87,-1.5,-3.5,1,1,0.5,0.00535656098,0.855053698
88,-1.5,-2.5,1,1,0.5,0.00703498767,0.855053698
89,-1.5,-1.5,1,1,0.5,0.00903534715,0.855053698
90,-1.5,-0.5,1,1,0.5,0.0113516302,0.855053698
91,-0.5,-17.706199,1,4.58760194,2.29380097,0.000178186587,0.855053698
92,-0.5,-13.6329249,1,3.55894634,1.77947317,0.000558121516,0.855053698
93,-0.5,-10.4729811,1,2.76094116,1.38047058,0.00106289532,0.855053698
94,-0.5,-8.02157615,1,2.1418688,1.0709344,0.00179879774,0.855053698
95,-0.5,-6.11983775,1,1.66160801,0.830804003,0.00287148646,0.855053698
96,-0.5,-4.64451687,1,1.28903375,0.644516874,0.00418938865,0.855053698
97,-0.5,-3.5,1,1,0.5,0.00549063452,0.855053698
98,-0.5,-2.5,1,1,0.5,0.00647481307,0.855053698
99,-0.5,-1.5,1,1,0.5,0.00563547643,0.855053698
100,-0.5,-0.5,1,1,0.5,0.0022038451,0.855053698
101,0.5,-17.706199,1,4.58760194,2.29380097,0.000178179724,0.855053698
102,0.5,-13.6329249,1,3.55894634,1.77947317,0.000558199177,0.855053698
103,0.5,-10.4729811,1,2.76094116,1.38047058,0.00106282641,0.855053698
104,0.5,-8.02157615,1,2.1418688,1.0709344,0.00179833291,0.855053698
105,0.5,-6.11983775,1,1.66160801,0.830804003,0.00287138561,0.855053698
106,0.5,-4.64451687,1,1.28903375,0.644516874,0.00418948457,0.855053698
107,0.5,-3.5,1,1,0.5,0.00548999425,0.855053698
108,0.5,-2.5,1,1,0.5,0.00647440767,0.855053698
109,0.5,-1.5,1,1,0.5,0.00563540666,0.855053698
110,0.5,-0.5,1,1,0.5,0.00220359321,0.855053698
111,1.5,-17.706199,1,4.58760194,2.29380097,0.000177247594,0.855053698
112,1.5,-13.6329249,1,3.55894634,1.77947317,0.000538148227,0.855053698
113,1.5,-10.4729811,1,2.76094116,1.38047058,0.00101842711,0.855053698
114,1.5,-8.02157615,1,2.1418688,1.0709344,0.00172659545,0.855053698
115,1.5,-6.11983775,1,1.66160801,0.830804003,0.00267442451,0.855053698
116,1.5,-4.64451687,1,1.28903375,0.644516874,0.00395492002,0.855053698
117,1.5,-3.5,1,1,0.5,0.00535666564,0.855053698
118,1.5,-2.5,1,1,0.5,0.00703464136,0.855053698
119,1.5,-1.5,1,1,0.5,0.00903565772,0.855053698
120,1.5,-0.5,1,1,0.5,0.0113523311,0.855053698
121,2.63853418,-17.706199,1.27706836,4.58760194,2.92934065,0.00017436648,0.855053698
122,2.63853418,-13.6329249,1.27706836,3.55894634,2.27250889,0.000483980494,0.855053698
123,2.63853418,-10.4729811,1.27706836,2.76094116,1.76295531,0.000918868916,0.855053698
124,2.63853418,-8.02157615,1.27706836,2.1418688,1.36765644,0.00147123881,0.855053698
125,2.63853418,-6.11983775,1.27706836,1.66160801,1.06099351,0.00217032196,0.855053698
126,2.63853418,-4.64451687,1.27706836,1.28903375,0.82309211,0.00275580999,0.855053698
127,2.63853418,-3.5,1.27706836,1,0.638534182,0.0031267663,0.855053698
128,2.63853418,-2.5,1.27706836,1,0.638534182,0.00354085026,0.855053698
129,2.63853418,-1.5,1.27706836,1,0.638534182,0.00301069607,0.855053698
130,2.63853418,-0.5,1.27706836,1,0.638534182,0.00117662073,0.855053698
131,4.09252017,-17.706199,1.63090361,4.58760194,3.74096828,0.000166254317,0.855053698
132,4.09252017,-13.6329249,1.63090361,3.55894634,2.90214921,0.000390868484,0.855053698
133,4.09252017,-10.4729811,1.63090361,2.76094116,2.25141445,0.000715848948,0.855053698
134,4.09252017,-8.02157615,1.63090361,2.1418688,1.74659077,0.00106920047,0.855053698
135,4.09252017,-6.11983775,1.63090361,1.66160801,1.35496124,0.00134722413,0.855053698
136,4.09252017,-4.64451687,1.63090361,1.28903375,1.05114489,0.00147365845,0.855053698
137,4.09252017,-3.5,1.63090361,1,0.815451803,0.00154259845,0.855053698
138,4.09252017,-2.5,1.63090361,1,0.815451803,0.00135254485,0.855053698
139,4.09252017,-1.5,1.63090361,1,0.815451803,0.000682376572,0.855053698
140,4.09252017,-0.5,1.63090361,1,0.815451803,0.000799457008,0.855053698
141,5.94935967,-17.706199,2.0827754,4.58760194,4.77747223,0.000144351344,0.855053698
142,5.94935967,-13.6329249,2.0827754,3.55894634,3.70624294,0.000282436489,0.855053698
143,5.94935967,-10.4729811,2.0827754,2.76094116,2.87521017,0.000430986456,0.855053698
144,5.94935967,-8.02157615,2.0827754,2.1418688,2.23051582,0.00052931168,0.855053698
145,5.94935967,-6.11983775,2.0827754,1.66160801,1.73037814,0.000648627291,0.855053698
146,5.94935967,-4.64451687,2.0827754,1.28903375,1.34238389,0.000684740856,0.855053698
147,5.94935967,-3.5,2.0827754,1,1.0413877,0.000608054446,0.855053698
148,5.94935967,-2.5,2.0827754,1,1.0413877,0.000424147001,0.855053698
149,5.94935967,-1.5,2.0827754,1,1.0413877,0.000189627076,0.855053698
150,5.94935967,-0.5,2.0827754,1,1.0413877,0.000117558257,0.855053698
151,8.32067065,-17.706199,2.65984657,4.58760194,6.10115865,7.11590736e-05,0.855053698
152,8.32067065,-13.6329249,2.65984657,3.55894634,4.73312561,0.000122639998,0.855053698
153,8.32067065,-10.4729811,2.65984657,2.76094116,3.67183995,0.000195679249,0.855053698
154,8.32067065,-8.02157615,2.65984657,2.1418688,2.84852119,0.000294213031,0.855053698
155,8.32067065,-6.11983775,2.65984657,1.66160801,2.20981118,0.000348094392,0.855053698
156,8.32067065,-4.64451687,2.65984657,1.28903375,1.714316,0.000337431075,0.855053698
157,8.32067065,-3.5,2.65984657,1,1.32992329,0.000291061823,0.855053698
158,8.32067065,-2.5,2.65984657,1,1.32992329,0.000227992139,0.855053698
159,8.32067065,-1.5,2.65984657,1,1.32992329,0.0001475163,0.855053698
160,8.32067065,-0.5,2.65984657,1,1.32992329,6.06993165e-05,0.855053698
161,11.3489969,-17.706199,3.39680591,4.58760194,7.79159669,5.74941627e-05,0.855053698
162,11.3489969,-13.6329249,3.39680591,3.55894634,6.04452498,9.95998779e-05,0.855053698
163,11.3489969,-10.4729811,3.39680591,2.76094116,4.68919063,0.000156456022,0.855053698
164,11.3489969,-8.02157615,3.39680591,2.1418688,3.63775629,0.000193243951,0.855053698
165,11.3489969,-6.11983775,3.39680591,1.66160801,2.82207995,0.000205337731,0.855053698
166,11.3489969,-4.64451687,3.39680591,1.28903375,2.18929873,0.000201820484,0.855053698
167,11.3489969,-3.5,3.39680591,1,1.69840295,0.000187494865,0.855053698
168,11.3489969,-2.5,3.39680591,1,1.69840295,0.000162926614,0.855053698
169,11.3489969,-1.5,3.39680591,1,1.69840295,0.000129515265,0.855053698
170,11.3489969,-0.5,3.39680591,1,1.69840295,0.000102523603,0.855053698
171,15.2163765,-17.706199,4.33795336,4.58760194,9.95040164,4.21463236e-05,0.855053698
172,15.2163765,-13.6329249,4.33795336,3.55894634,7.71927162,6.77518713e-05,0.855053698
173,15.2163765,-10.4729811,4.33795336,2.76094116,5.98841701,9.71851758e-05,0.855053698
174,15.2163765,-8.02157615,4.33795336,2.1418688,4.64566348,0.000118045234,0.855053698
175,15.2163765,-6.11983775,4.33795336,1.66160801,3.60398902,0.000129369512,0.855053698
176,15.2163765,-4.64451687,4.33795336,1.28903375,2.79588414,0.000132599692,0.855053698
177,15.2163765,-3.5,4.33795336,1,2.16897668,0.000132181727,0.855053698
178,15.2163765,-2.5,4.33795336,1,2.16897668,0.000131215908,0.855053698
179,15.2163765,-1.5,4.33795336,1,2.16897668,0.000132887339,0.855053698
180,15.2163765,-0.5,4.33795336,1,2.16897668,0.000133571825,0.855053698
181,20.1552847,-17.706199,5.539863,4.58760194,12.7073431,1.96841343e-05,0.855053698
182,20.1552847,-13.6329249,5.539863,3.55894634,9.85803758,3.79628404e-05,0.855053698
183,20.1552847,-10.4729811,5.539863,2.76094116,7.64761791,5.76819259e-05,0.855053698
184,20.1552847,-8.02157615,5.539863,2.1418688,5.93282985,7.42965348e-05,0.855053698
185,20.1552847,-6.11983775,5.539863,1.66160801,4.60254036,8.68723462e-05,0.855053698
186,20.1552847,-4.64451687,5.539863,1.28903375,3.57053519,9.68766065e-05,0.855053698
187,20.1552847,-3.5,5.539863,1,2.7699315,0.000105057598,0.855053698
188,20.1552847,-2.5,5.539863,1,2.7699315,0.000112975228,0.855053698
189,20.1552847,-1.5,5.539863,1,2.7699315,0.000123102108,0.855053698
190,20.1552847,-0.5,5.539863,1,2.7699315,0.000138318814,0.855053698
191,26.4626081,-17.706199,7.07478378,4.58760194,16.2281459,5.32395612e-06,0.855053698
192,26.4626081,-13.6329249,7.07478378,3.55894634,12.5893879,2.0923768e-05,0.855053698
193,26.4626081,-10.4729811,7.07478378,2.76094116,9.76653089,3.89165243e-05,0.855053698
194,26.4626081,-8.02157615,7.07478378,2.1418688,7.57662931,5.49450519e-05,0.855053698
195,26.4626081,-6.11983775,7.07478378,1.66160801,5.87775869,6.85275693e-05,0.855053698
196,26.4626081,-4.64451687,7.07478378,1.28903375,4.55981753,7.98864948e-05,0.855053698
197,26.4626081,-3.5,7.07478378,1,3.53739189,8.95152079e-05,0.855053698
198,26.4626081,-2.5,7.07478378,1,3.53739189,9.88565234e-05,0.855053698
199,26.4626081,-1.5,7.07478378,1,3.53739189,0.00011022853,0.855053698
200,26.4626081,-0.5,7.07478378,1,3.53739189,0.000125319113,0.855053698
