# ADR90 WP-A2 END-OF-RUN plastic field, build afb95c40c9e3da1cc97d6aabe8168644c53d0e82 (expected afb95c40c9e3da1cc97d6aabe8168644c53d0e82), leg h1.0_e0.6944, s/B=0.076420, mode BUDGET
ele,xc,zc,hx,hz,vol,eps_q_p,eta_grav
1,-26.4626081,-17.706199,7.07478378,4.58760194,16.2281459,6.92812664e-05,0.855053698
2,-26.4626081,-13.6329249,7.07478378,3.55894634,12.5893879,0.000210296149,0.855053698
3,-26.4626081,-10.4729811,7.07478378,2.76094116,9.76653089,0.000346678911,0.855053698
4,-26.4626081,-8.02157615,7.07478378,2.1418688,7.57662931,0.000452837182,0.855053698
5,-26.4626081,-6.11983775,7.07478378,1.66160801,5.87775869,0.000534201723,0.855053698
6,-26.4626081,-4.64451687,7.07478378,1.28903375,4.55981753,0.000597730985,0.855053698
7,-26.4626081,-3.5,7.07478378,1,3.53739189,0.000649372095,0.855053698
8,-26.4626081,-2.5,7.07478378,1,3.53739189,0.000701717645,0.855053698
9,-26.4626081,-1.5,7.07478378,1,3.53739189,0.00075535006,0.855053698
10,-26.4626081,-0.5,7.07478378,1,3.53739189,0.000817425658,0.855053698
11,-20.1552847,-17.706199,5.539863,4.58760194,12.7073431,0.000211343395,0.855053698
12,-20.1552847,-13.6329249,5.539863,3.55894634,9.85803758,0.000362045075,0.855053698
13,-20.1552847,-10.4729811,5.539863,2.76094116,7.64761791,0.000488603888,0.855053698
14,-20.1552847,-8.02157615,5.539863,2.1418688,5.93282985,0.000581023609,0.855053698
15,-20.1552847,-6.11983775,5.539863,1.66160801,4.60254036,0.000638695544,0.855053698
16,-20.1552847,-4.64451687,5.539863,1.28903375,3.57053519,0.000674684673,0.855053698
17,-20.1552847,-3.5,5.539863,1,2.7699315,0.000697125322,0.855053698
18,-20.1552847,-2.5,5.539863,1,2.7699315,0.000726473288,0.855053698
19,-20.1552847,-1.5,5.539863,1,2.7699315,0.000751816662,0.855053698
20,-20.1552847,-0.5,5.539863,1,2.7699315,0.000801190394,0.855053698
21,-15.2163765,-17.706199,4.33795336,4.58760194,9.95040164,0.00039585089,0.855053698
22,-15.2163765,-13.6329249,4.33795336,3.55894634,7.71927162,0.000581092963,0.855053698
23,-15.2163765,-10.4729811,4.33795336,2.76094116,5.98841701,0.000759525508,0.855053698
24,-15.2163765,-8.02157615,4.33795336,2.1418688,4.64566348,0.000856275277,0.855053698
25,-15.2163765,-6.11983775,4.33795336,1.66160801,3.60398902,0.000879817831,0.855053698
26,-15.2163765,-4.64451687,4.33795336,1.28903375,2.79588414,0.000856465998,0.855053698
27,-15.2163765,-3.5,4.33795336,1,2.16897668,0.000817399407,0.855053698
28,-15.2163765,-2.5,4.33795336,1,2.16897668,0.000757571591,0.855053698
29,-15.2163765,-1.5,4.33795336,1,2.16897668,0.000692563509,0.855053698
30,-15.2163765,-0.5,4.33795336,1,2.16897668,0.000611359593,0.855053698
31,-11.3489969,-17.706199,3.39680591,4.58760194,7.79159669,0.000526621792,0.855053698
32,-11.3489969,-13.6329249,3.39680591,3.55894634,6.04452498,0.000806990613,0.855053698
33,-11.3489969,-10.4729811,3.39680591,2.76094116,4.68919063,0.00112622386,0.855053698
34,-11.3489969,-8.02157615,3.39680591,2.1418688,3.63775629,0.00129123949,0.855053698
35,-11.3489969,-6.11983775,3.39680591,1.66160801,2.82207995,0.00129239506,0.855053698
36,-11.3489969,-4.64451687,3.39680591,1.28903375,2.18929873,0.00119031292,0.855053698
37,-11.3489969,-3.5,3.39680591,1,1.69840295,0.00102227265,0.855053698
38,-11.3489969,-2.5,3.39680591,1,1.69840295,0.000834151607,0.855053698
39,-11.3489969,-1.5,3.39680591,1,1.69840295,0.000581668715,0.855053698
40,-11.3489969,-0.5,3.39680591,1,1.69840295,0.000350372804,0.855053698
41,-8.32067065,-17.706199,2.65984657,4.58760194,6.10115865,0.000557347932,0.855053698
42,-8.32067065,-13.6329249,2.65984657,3.55894634,4.73312561,0.000926641096,0.855053698
43,-8.32067065,-10.4729811,2.65984657,2.76094116,3.67183995,0.00138919153,0.855053698
44,-8.32067065,-8.02157615,2.65984657,2.1418688,2.84852119,0.0018502514,0.855053698
45,-8.32067065,-6.11983775,2.65984657,1.66160801,2.20981118,0.00199033591,0.855053698
46,-8.32067065,-4.64451687,2.65984657,1.28903375,1.714316,0.00181729229,0.855053698
47,-8.32067065,-3.5,2.65984657,1,1.32992329,0.00145934238,0.855053698
48,-8.32067065,-2.5,2.65984657,1,1.32992329,0.000991348995,0.855053698
49,-8.32067065,-1.5,2.65984657,1,1.32992329,0.000527299517,0.855053698
50,-8.32067065,-0.5,2.65984657,1,1.32992329,0.000333952026,0.855053698
51,-5.94935967,-17.706199,2.0827754,4.58760194,4.77747223,0.0007766138,0.855053698
52,-5.94935967,-13.6329249,2.0827754,3.55894634,3.70624294,0.001536649,0.855053698
53,-5.94935967,-10.4729811,2.0827754,2.76094116,2.87521017,0.00233106354,0.855053698
54,-5.94935967,-8.02157615,2.0827754,2.1418688,2.23051582,0.00298495802,0.855053698
55,-5.94935967,-6.11983775,2.0827754,1.66160801,1.73037814,0.00340968836,0.855053698
56,-5.94935967,-4.64451687,2.0827754,1.28903375,1.34238389,0.00329721424,0.855053698
57,-5.94935967,-3.5,2.0827754,1,1.0413877,0.00281283113,0.855053698
58,-5.94935967,-2.5,2.0827754,1,1.0413877,0.00182874355,0.855053698
59,-5.94935967,-1.5,2.0827754,1,1.0413877,0.000578593429,0.855053698
60,-5.94935967,-0.5,2.0827754,1,1.0413877,0.00160267106,0.855053698
61,-4.09252017,-17.706199,1.63090361,4.58760194,3.74096828,0.000818638078,0.855053698
62,-4.09252017,-13.6329249,1.63090361,3.55894634,2.90214921,0.00197576318,0.855053698
63,-4.09252017,-10.4729811,1.63090361,2.76094116,2.25141445,0.00352167035,0.855053698
64,-4.09252017,-8.02157615,1.63090361,2.1418688,1.74659077,0.00513203879,0.855053698
65,-4.09252017,-6.11983775,1.63090361,1.66160801,1.35496124,0.00632927124,0.855053698
66,-4.09252017,-4.64451687,1.63090361,1.28903375,1.05114489,0.00658050194,0.855053698
67,-4.09252017,-3.5,1.63090361,1,0.815451803,0.00644727445,0.855053698
68,-4.09252017,-2.5,1.63090361,1,0.815451803,0.00543156135,0.855053698
69,-4.09252017,-1.5,1.63090361,1,0.815451803,0.00259570261,0.855053698
70,-4.09252017,-0.5,1.63090361,1,0.815451803,0.00325582693,0.855053698
71,-2.63853418,-17.706199,1.27706836,4.58760194,2.92934065,0.000835072138,0.855053698
72,-2.63853418,-13.6329249,1.27706836,3.55894634,2.27250889,0.00234309189,0.855053698
73,-2.63853418,-10.4729811,1.27706836,2.76094116,1.76295531,0.00439287093,0.855053698
74,-2.63853418,-8.02157615,1.27706836,2.1418688,1.36765644,0.00689304323,0.855053698
75,-2.63853418,-6.11983775,1.27706836,1.66160801,1.06099351,0.00971643789,0.855053698
76,-2.63853418,-4.64451687,1.27706836,1.28903375,0.82309211,0.0118215839,0.855053698
77,-2.63853418,-3.5,1.27706836,1,0.638534182,0.0127793262,0.855053698
78,-2.63853418,-2.5,1.27706836,1,0.638534182,0.0135689435,0.855053698
79,-2.63853418,-1.5,1.27706836,1,0.638534182,0.0111144768,0.855053698
80,-2.63853418,-0.5,1.27706836,1,0.638534182,0.0053983624,0.855053698
81,-1.5,-17.706199,1,4.58760194,2.29380097,0.000837635398,0.855053698
82,-1.5,-13.6329249,1,3.55894634,1.77947317,0.00255966192,0.855053698
83,-1.5,-10.4729811,1,2.76094116,1.38047058,0.0048862251,0.855053698
84,-1.5,-8.02157615,1,2.1418688,1.0709344,0.00814710731,0.855053698
85,-1.5,-6.11983775,1,1.66160801,0.830804003,0.0124016808,0.855053698
86,-1.5,-4.64451687,1,1.28903375,0.644516874,0.0176851609,0.855053698
87,-1.5,-3.5,1,1,0.5,0.0232852477,0.855053698
88,-1.5,-2.5,1,1,0.5,0.0294314037,0.855053698
89,-1.5,-1.5,1,1,0.5,0.0356700016,0.855053698
90,-1.5,-0.5,1,1,0.5,0.0419061931,0.855053698
91,-0.5,-17.706199,1,4.58760194,2.29380097,0.000835463418,0.855053698
92,-0.5,-13.6329249,1,3.55894634,1.77947317,0.00264162202,0.855053698
93,-0.5,-10.4729811,1,2.76094116,1.38047058,0.00509397634,0.855053698
94,-0.5,-8.02157615,1,2.1418688,1.0709344,0.0086507757,0.855053698
95,-0.5,-6.11983775,1,1.66160801,0.830804003,0.013250003,0.855053698
96,-0.5,-4.64451687,1,1.28903375,0.644516874,0.0178520236,0.855053698
97,-0.5,-3.5,1,1,0.5,0.0210838031,0.855053698
98,-0.5,-2.5,1,1,0.5,0.0217511317,0.855053698
99,-0.5,-1.5,1,1,0.5,0.0171076623,0.855053698
100,-0.5,-0.5,1,1,0.5,0.00656905832,0.855053698
101,0.5,-17.706199,1,4.58760194,2.29380097,0.000835461503,0.855053698
102,0.5,-13.6329249,1,3.55894634,1.77947317,0.00264151657,0.855053698
103,0.5,-10.4729811,1,2.76094116,1.38047058,0.00509158031,0.855053698
104,0.5,-8.02157615,1,2.1418688,1.0709344,0.00865050717,0.855053698
105,0.5,-6.11983775,1,1.66160801,0.830804003,0.0132492095,0.855053698
106,0.5,-4.64451687,1,1.28903375,0.644516874,0.0178513404,0.855053698
107,0.5,-3.5,1,1,0.5,0.0210840711,0.855053698
108,0.5,-2.5,1,1,0.5,0.0217506353,0.855053698
109,0.5,-1.5,1,1,0.5,0.0171067547,0.855053698
110,0.5,-0.5,1,1,0.5,0.00656955474,0.855053698
111,1.5,-17.706199,1,4.58760194,2.29380097,0.000837658508,0.855053698
112,1.5,-13.6329249,1,3.55894634,1.77947317,0.0025599076,0.855053698
113,1.5,-10.4729811,1,2.76094116,1.38047058,0.00488525037,0.855053698
114,1.5,-8.02157615,1,2.1418688,1.0709344,0.00814789718,0.855053698
115,1.5,-6.11983775,1,1.66160801,0.830804003,0.012401603,0.855053698
116,1.5,-4.64451687,1,1.28903375,0.644516874,0.017684855,0.855053698
117,1.5,-3.5,1,1,0.5,0.0232848759,0.855053698
118,1.5,-2.5,1,1,0.5,0.0294330381,0.855053698
119,1.5,-1.5,1,1,0.5,0.0356707914,0.855053698
120,1.5,-0.5,1,1,0.5,0.0419069036,0.855053698
121,2.63853418,-17.706199,1.27706836,4.58760194,2.92934065,0.000835034327,0.855053698
122,2.63853418,-13.6329249,1.27706836,3.55894634,2.27250889,0.0023428273,0.855053698
123,2.63853418,-10.4729811,1.27706836,2.76094116,1.76295531,0.00439357847,0.855053698
124,2.63853418,-8.02157615,1.27706836,2.1418688,1.36765644,0.00689267986,0.855053698
125,2.63853418,-6.11983775,1.27706836,1.66160801,1.06099351,0.00971686341,0.855053698
126,2.63853418,-4.64451687,1.27706836,1.28903375,0.82309211,0.0118223185,0.855053698
127,2.63853418,-3.5,1.27706836,1,0.638534182,0.0127781504,0.855053698
128,2.63853418,-2.5,1.27706836,1,0.638534182,0.0135688208,0.855053698
129,2.63853418,-1.5,1.27706836,1,0.638534182,0.0111146714,0.855053698
130,2.63853418,-0.5,1.27706836,1,0.638534182,0.0053995377,0.855053698
131,4.09252017,-17.706199,1.63090361,4.58760194,3.74096828,0.000818634578,0.855053698
132,4.09252017,-13.6329249,1.63090361,3.55894634,2.90214921,0.00197544581,0.855053698
133,4.09252017,-10.4729811,1.63090361,2.76094116,2.25141445,0.00352085918,0.855053698
134,4.09252017,-8.02157615,1.63090361,2.1418688,1.74659077,0.0051321591,0.855053698
135,4.09252017,-6.11983775,1.63090361,1.66160801,1.35496124,0.00633127937,0.855053698
136,4.09252017,-4.64451687,1.63090361,1.28903375,1.05114489,0.00658082446,0.855053698
137,4.09252017,-3.5,1.63090361,1,0.815451803,0.00644591819,0.855053698
138,4.09252017,-2.5,1.63090361,1,0.815451803,0.00543261115,0.855053698
139,4.09252017,-1.5,1.63090361,1,0.815451803,0.00259597122,0.855053698
140,4.09252017,-0.5,1.63090361,1,0.815451803,0.00325551974,0.855053698
141,5.94935967,-17.706199,2.0827754,4.58760194,4.77747223,0.000776592296,0.855053698
142,5.94935967,-13.6329249,2.0827754,3.55894634,3.70624294,0.00153694868,0.855053698
143,5.94935967,-10.4729811,2.0827754,2.76094116,2.87521017,0.00233090988,0.855053698
144,5.94935967,-8.02157615,2.0827754,2.1418688,2.23051582,0.00298540156,0.855053698
145,5.94935967,-6.11983775,2.0827754,1.66160801,1.73037814,0.00341065507,0.855053698
146,5.94935967,-4.64451687,2.0827754,1.28903375,1.34238389,0.0032970193,0.855053698
147,5.94935967,-3.5,2.0827754,1,1.0413877,0.00281158963,0.855053698
148,5.94935967,-2.5,2.0827754,1,1.0413877,0.0018297898,0.855053698
149,5.94935967,-1.5,2.0827754,1,1.0413877,0.000578440903,0.855053698
150,5.94935967,-0.5,2.0827754,1,1.0413877,0.00160313977,0.855053698
151,8.32067065,-17.706199,2.65984657,4.58760194,6.10115865,0.000557334382,0.855053698
152,8.32067065,-13.6329249,2.65984657,3.55894634,4.73312561,0.000926655875,0.855053698
153,8.32067065,-10.4729811,2.65984657,2.76094116,3.67183995,0.00138978435,0.855053698
154,8.32067065,-8.02157615,2.65984657,2.1418688,2.84852119,0.00184971514,0.855053698
155,8.32067065,-6.11983775,2.65984657,1.66160801,2.20981118,0.00198935668,0.855053698
156,8.32067065,-4.64451687,2.65984657,1.28903375,1.714316,0.00181729424,0.855053698
157,8.32067065,-3.5,2.65984657,1,1.32992329,0.00145999741,0.855053698
158,8.32067065,-2.5,2.65984657,1,1.32992329,0.00099172817,0.855053698
159,8.32067065,-1.5,2.65984657,1,1.32992329,0.000527463911,0.855053698
160,8.32067065,-0.5,2.65984657,1,1.32992329,0.000334017943,0.855053698
161,11.3489969,-17.706199,3.39680591,4.58760194,7.79159669,0.000526604287,0.855053698
162,11.3489969,-13.6329249,3.39680591,3.55894634,6.04452498,0.000806985905,0.855053698
163,11.3489969,-10.4729811,3.39680591,2.76094116,4.68919063,0.00112617916,0.855053698
164,11.3489969,-8.02157615,3.39680591,2.1418688,3.63775629,0.00129101727,0.855053698
165,11.3489969,-6.11983775,3.39680591,1.66160801,2.82207995,0.00129218129,0.855053698
166,11.3489969,-4.64451687,3.39680591,1.28903375,2.18929873,0.00118940164,0.855053698
167,11.3489969,-3.5,3.39680591,1,1.69840295,0.00102170893,0.855053698
168,11.3489969,-2.5,3.39680591,1,1.69840295,0.000834197205,0.855053698
169,11.3489969,-1.5,3.39680591,1,1.69840295,0.000581522438,0.855053698
170,11.3489969,-0.5,3.39680591,1,1.69840295,0.000349872855,0.855053698
171,15.2163765,-17.706199,4.33795336,4.58760194,9.95040164,0.000395842677,0.855053698
172,15.2163765,-13.6329249,4.33795336,3.55894634,7.71927162,0.000581086977,0.855053698
173,15.2163765,-10.4729811,4.33795336,2.76094116,5.98841701,0.000759510409,0.855053698
174,15.2163765,-8.02157615,4.33795336,2.1418688,4.64566348,0.000856243267,0.855053698
175,15.2163765,-6.11983775,4.33795336,1.66160801,3.60398902,0.000879723056,0.855053698
176,15.2163765,-4.64451687,4.33795336,1.28903375,2.79588414,0.000855618026,0.855053698
177,15.2163765,-3.5,4.33795336,1,2.16897668,0.000816469788,0.855053698
178,15.2163765,-2.5,4.33795336,1,2.16897668,0.000757550324,0.855053698
179,15.2163765,-1.5,4.33795336,1,2.16897668,0.000692167769,0.855053698
180,15.2163765,-0.5,4.33795336,1,2.16897668,0.000610400282,0.855053698
181,20.1552847,-17.706199,5.539863,4.58760194,12.7073431,0.000211341643,0.855053698
182,20.1552847,-13.6329249,5.539863,3.55894634,9.85803758,0.000362040058,0.855053698
183,20.1552847,-10.4729811,5.539863,2.76094116,7.64761791,0.000488592893,0.855053698
184,20.1552847,-8.02157615,5.539863,2.1418688,5.93282985,0.000581006759,0.855053698
185,20.1552847,-6.11983775,5.539863,1.66160801,4.60254036,0.000638679574,0.855053698
186,20.1552847,-4.64451687,5.539863,1.28903375,3.57053519,0.000674679802,0.855053698
187,20.1552847,-3.5,5.539863,1,2.7699315,0.000697114606,0.855053698
188,20.1552847,-2.5,5.539863,1,2.7699315,0.000727344519,0.855053698
189,20.1552847,-1.5,5.539863,1,2.7699315,0.000751128169,0.855053698
190,20.1552847,-0.5,5.539863,1,2.7699315,0.000801399695,0.855053698
191,26.4626081,-17.706199,7.07478378,4.58760194,16.2281459,6.92809277e-05,0.855053698
192,26.4626081,-13.6329249,7.07478378,3.55894634,12.5893879,0.000210292793,0.855053698
193,26.4626081,-10.4729811,7.07478378,2.76094116,9.76653089,0.000346671605,0.855053698
194,26.4626081,-8.02157615,7.07478378,2.1418688,7.57662931,0.000452825111,0.855053698
195,26.4626081,-6.11983775,7.07478378,1.66160801,5.87775869,0.00053418285,0.855053698
196,26.4626081,-4.64451687,7.07478378,1.28903375,4.55981753,0.000597702921,0.855053698
197,26.4626081,-3.5,7.07478378,1,3.53739189,0.000649327757,0.855053698
198,26.4626081,-2.5,7.07478378,1,3.53739189,0.000701525562,0.855053698
199,26.4626081,-1.5,7.07478378,1,3.53739189,0.000755709383,0.855053698
200,26.4626081,-0.5,7.07478378,1,3.53739189,0.000816928714,0.855053698
