# ADR90 WP-A2 tau=0 band, build afb95c40c9e3da1cc97d6aabe8168644c53d0e82 (expected afb95c40c9e3da1cc97d6aabe8168644c53d0e82), leg h1.0_e0.6944
s_m,s_over_B,q_foot_kPa,q_base_kPa,ds_mm,relaxed,wall_s,implex_err_avg,implex_refusals
2e-05,1e-05,2.73884294,-0.563280637,0.02,0,0.0674445629,0.00226130872,0
4e-05,2e-05,2.23070501,-2.16056071,0.02,0,0.172039509,0.000430746085,0
6e-05,3e-05,2.59500075,-2.65246655,0.02,0,0.286779404,0.000224179238,0
8e-05,4e-05,2.97768936,-3.00798077,0.02,0,0.380776405,0.000154133543,0
0.0001,5e-05,3.34883649,-3.36159697,0.02,0,0.468837261,9.26460994e-05,0
0.00012,6e-05,3.73757147,-3.73888508,0.04,0,0.555133581,7.2683314e-05,0
0.00016,8e-05,4.52069692,-4.52528639,0.04,0,0.664731741,0.000122380239,0
0.0002,0.0001,5.29987018,-5.31796094,0.04,0,0.775889635,0.000132585133,0
0.00024,0.00012,6.06593397,-6.08599026,0.04,0,0.88918066,0.000117258672,0
0.00028,0.00014,6.81866112,-6.83283126,0.04,0,1.0066607,8.82562031e-05,0
0.00032,0.00016,7.55392357,-7.55644309,0.04,0,1.13030601,6.79547692e-05,0
0.00036,0.00018,8.25850511,-8.25787319,0.08,0,1.25772095,5.33667667e-05,0
0.00044,0.00022,9.64259267,-9.63708318,0.08,0,1.40339732,9.47421011e-05,0
0.00052,0.00026,10.9719996,-10.9794844,0.08,0,1.56932449,0.000108955493,0
0.0006,0.0003,12.2738929,-12.276588,0.08,0,1.73635936,0.000103668125,0
0.00068,0.00034,13.5396263,-13.5515288,0.08,0,1.90561676,9.48270367e-05,0
0.00076,0.00038,14.7852969,-14.7998621,0.08,0,2.07723761,9.36703051e-05,0
0.00084,0.00042,16.0103887,-16.018875,0.16,0,2.27002382,8.75143328e-05,0
0.001,0.0005,18.4551884,-18.4572498,0.16,0,2.53905821,0.000131820735,0
0.00116,0.00058,20.8648858,-20.8720837,0.16,0,2.80985141,0.000157242985,0
0.00132,0.00066,23.2369183,-23.2584819,0.16,0,3.050776,0.000157158155,0
0.00148,0.00074,25.5782854,-25.7478013,0.16,0,3.2847085,0.000157987849,0
0.00164,0.00082,27.8847329,-27.8969326,0.16,0,3.51683044,0.000155943301,0
0.0018,0.0009,30.1423464,-29.6986785,0.32,0,3.7798717,0.000159783943,0
0.00212,0.00106,34.6375079,-34.2310558,0.32,0,4.14043927,0.000227304148,8
0.00244,0.00122,39.1081293,-38.8385319,0.32,0,4.50397587,0.000271377146,16
0.00276,0.00138,43.5178791,-43.3266307,0.32,0,4.86992121,0.000298954938,20
0.00308,0.00154,47.83519,-47.754455,0.32,0,5.24025869,0.000301372457,24
0.00324,0.00162,49.8997938,-49.8823459,0.16,0,5.81578088,0.000229585605,60
0.0034,0.0017,51.9389302,-51.93604,0.16,0,6.06201863,0.000162889946,60
0.00356,0.00178,53.9795207,-54.0071076,0.16,0,6.3062768,0.000114787958,60
0.00372,0.00186,56.0529035,-56.082886,0.16,0,6.56392646,8.21489052e-05,60
0.00388,0.00194,58.1610062,-58.1804708,0.16,0,6.80510497,5.92517813e-05,60
0.00404,0.00202,60.2851851,-60.2809767,0.32,0,7.04099679,5.28698932e-05,60
0.0042,0.0021,62.3868996,-62.3807471,0.16,0,7.63505363,5.38790623e-05,108
0.00436,0.00218,64.4702013,-64.4636446,0.16,0,7.86531281,5.97322877e-05,108
0.00452,0.00226,66.545313,-66.5333188,0.16,0,8.10020781,5.82897141e-05,108
0.00468,0.00234,68.6098985,-68.592248,0.16,0,8.32528448,5.49738466e-05,108
0.00484,0.00242,70.6591209,-70.6474682,0.16,0,8.56697679,5.14628532e-05,108
0.005,0.0025,72.7084131,-72.6986862,0.32,0,8.81023788,4.49035457e-05,108
0.00516,0.00258,74.7528252,-74.7481274,0.16,0,9.37545061,4.57093021e-05,168
0.00532,0.00266,76.7937176,-76.7925756,0.16,0,9.61919332,4.62180437e-05,168
0.00548,0.00274,78.8346409,-78.8348424,0.16,0,9.86954069,4.49617095e-05,168
0.00564,0.00282,80.8693306,-80.8707531,0.16,0,10.1096277,4.69865031e-05,168
0.0058,0.0029,82.9050284,-82.8938064,0.16,0,10.3618407,4.82730618e-05,168
0.00596,0.00298,84.9343215,-84.9109852,0.32,0,10.5913141,4.88505495e-05,168
0.00612,0.00306,86.9439052,-86.9299811,0.16,0,11.128365,4.54908521e-05,228
0.00628,0.00314,88.9606382,-88.9461406,0.16,0,11.3666766,4.3004947e-05,228
0.00644,0.00322,90.973073,-90.95591,0.16,0,11.6206987,4.32330779e-05,228
0.0066,0.0033,93.000806,-92.962739,0.16,0,11.8710401,4.03925052e-05,228
0.00676,0.00338,94.9959218,-94.9745006,0.16,0,12.1128292,4.10331391e-05,228
0.00692,0.00346,96.9937016,-96.9766731,0.32,0,12.3536565,3.92172459e-05,228
0.00708,0.00354,98.9947694,-98.9729709,0.16,0,12.8775129,3.92390804e-05,288
0.00724,0.00362,100.982272,-100.964223,0.16,0,13.0912485,3.91545474e-05,288
0.0074,0.0037,102.974826,-102.950036,0.16,0,13.3262727,3.79405553e-05,288
0.00756,0.00378,104.953301,-104.939369,0.16,0,13.5594473,3.43326984e-05,288
0.00772,0.00386,106.931881,-106.923803,0.16,0,13.775641,3.19155779e-05,288
0.00788,0.00394,108.9112,-108.902895,0.32,0,13.991267,3.07553583e-05,288
0.00804,0.00402,110.888077,-110.877831,0.16,0,14.5082643,3.27889986e-05,348
0.0082,0.0041,112.868422,-112.848386,0.16,0,14.7340605,3.13326459e-05,348
0.00836,0.00418,114.828837,-114.823115,0.16,0,14.9512804,3.037942e-05,348
0.00852,0.00426,116.804746,-116.791349,0.16,0,15.1921628,2.83905332e-05,348
0.00868,0.00434,118.771635,-118.760092,0.16,0,15.4085352,2.8648557e-05,348
0.00884,0.00442,120.734379,-120.728497,0.32,0,15.6477835,2.63584009e-05,348
0.00916,0.00458,124.670036,-124.654674,0.32,0,16.0133393,5.01756599e-05,352
0.00948,0.00474,128.610559,-128.596298,0.32,0,16.3475266,4.71756517e-05,356
0.0098,0.0049,132.542144,-132.522677,0.32,0,16.7036576,5.76160615e-05,360
0.01012,0.00506,136.457441,-136.425124,0.32,0,17.0594125,6.48849199e-05,364
0.01044,0.00522,140.335808,-140.305252,0.32,0,17.4183605,7.1838093e-05,368
0.01076,0.00538,144.219135,-144.168116,0.64,0,17.7626698,7.58992071e-05,372
0.01108,0.00554,148.076465,-148.026612,0.32,0,18.4950125,7.85290463e-05,532
0.0114,0.0057,151.931606,-151.87532,0.32,0,18.8420687,8.03982393e-05,532
0.01172,0.00586,155.774314,-155.727952,0.32,0,19.1954303,8.16711923e-05,532
0.01204,0.00602,159.622577,-159.569613,0.32,0,19.5567148,8.01427019e-05,532
0.01236,0.00618,163.46674,-163.415798,0.32,0,19.9176567,7.98488255e-05,532
0.01268,0.00634,167.312017,-167.256827,0.64,0,20.2840319,7.68832029e-05,532
0.013,0.0065,171.145614,-171.092641,0.32,0,21.0603204,7.76525447e-05,700
0.01332,0.00666,174.971826,-174.92678,0.32,0,21.4137008,7.24922423e-05,700
0.01364,0.00682,178.79711,-178.751867,0.32,0,21.7806106,6.88700574e-05,700
0.01396,0.00698,182.614158,-182.578442,0.32,0,22.1199193,6.46899173e-05,700
0.01428,0.00714,186.446951,-186.399273,0.32,0,22.4723513,5.94062097e-05,700
0.0146,0.0073,190.267633,-190.213461,0.64,0,22.8143582,6.11184005e-05,700
0.01492,0.00746,194.056329,-194.031262,0.32,0,23.5326998,5.63372697e-05,868
0.01524,0.00762,197.86476,-197.835607,0.32,0,23.8797593,5.52045196e-05,868
0.01556,0.00778,201.647425,-201.631576,0.32,0,24.2250156,5.57567332e-05,868
0.01588,0.00794,205.450152,-205.41984,0.32,0,24.5548112,5.33955263e-05,868
0.0162,0.0081,209.259047,-209.201299,0.32,0,24.8949335,5.47890503e-05,868
0.01652,0.00826,213.014323,-212.992677,0.64,0,25.2304194,5.40730086e-05,868
0.01684,0.00842,216.820542,-216.772862,0.32,0,25.9549482,5.24773996e-05,1024
0.01716,0.00858,220.574734,-220.559027,0.32,0,26.2919421,5.07770221e-05,1024
0.01748,0.00874,224.364159,-224.338481,0.32,0,26.6313074,5.31826068e-05,1024
0.0178,0.0089,228.132033,-228.111035,0.32,0,26.9562294,5.22665971e-05,1024
0.01812,0.00906,231.916482,-231.883545,0.32,0,27.2869859,5.19416183e-05,1024
0.01844,0.00922,235.692234,-235.654361,0.64,0,27.635792,5.23654542e-05,1024
0.01876,0.00938,239.483082,-239.424498,0.32,0,28.3481548,5.35160365e-05,1180
0.01908,0.00954,243.23707,-243.200332,0.32,0,28.6770532,5.19296758e-05,1184
0.0194,0.0097,246.998136,-246.96248,0.32,0,29.0161545,5.47766685e-05,1188
0.01972,0.00986,250.76238,-250.72936,0.32,0,29.324718,5.46968634e-05,1192
0.02004,0.01002,254.514191,-254.483648,0.32,0,29.6637361,5.53431305e-05,1196
0.02036,0.01018,258.282088,-258.23779,0.64,0,29.9886355,5.45176816e-05,1200
0.02068,0.01034,262.037669,-261.993497,0.32,0,30.6799061,5.2707155e-05,1360
0.021,0.0105,265.786987,-265.750239,0.32,0,30.9900162,5.20475379e-05,1364
0.02132,0.01066,269.539395,-269.50782,0.32,0,31.3233576,5.1484107e-05,1368
0.02164,0.01082,273.28669,-273.257567,0.32,0,31.6436045,5.04789366e-05,1372
0.02196,0.01098,277.039832,-277.00925,0.32,0,31.966553,5.04631142e-05,1376
0.02228,0.01114,280.795667,-280.755542,0.64,0,32.2974403,5.07360625e-05,1380
0.0226,0.0113,284.540942,-284.503732,0.32,0,33.0074379,4.9296893e-05,1540
0.02292,0.01146,288.275366,-288.250152,0.32,0,33.3483794,4.82287742e-05,1544
0.02324,0.01162,292.017531,-291.995086,0.32,0,33.6774886,4.63185828e-05,1544
0.02356,0.01178,295.753491,-295.736111,0.32,0,33.9997311,4.5848e-05,1544
0.02388,0.01194,299.494657,-299.475012,0.32,0,34.3051486,4.53485146e-05,1544
0.0242,0.0121,303.228453,-303.210647,0.64,0,34.6197853,4.45546738e-05,1544
0.02452,0.01226,306.974327,-306.944496,0.32,0,35.3015926,4.59475113e-05,1700
0.02484,0.01242,310.707191,-310.67944,0.32,0,35.6232629,4.46759254e-05,1700
0.02516,0.01258,314.424445,-314.413037,0.32,0,35.9390352,4.27927191e-05,1700
0.02548,0.01274,318.17129,-318.138975,0.32,0,36.285568,4.53098904e-05,1700
0.0258,0.0129,321.906757,-321.861112,0.32,0,36.6235785,4.39088115e-05,1700
0.02612,0.01306,325.622876,-325.58818,0.64,0,36.956789,4.22122945e-05,1700
0.02644,0.01322,329.346788,-329.317243,0.32,0,37.653429,4.21752611e-05,1856
0.02676,0.01338,333.069332,-333.040381,0.32,0,37.9832978,4.39328674e-05,1856
0.02708,0.01354,336.790136,-336.768596,0.32,0,38.3104219,4.16928938e-05,1856
0.0274,0.0137,340.506963,-340.486472,0.32,0,38.6515369,4.30203134e-05,1856
0.02772,0.01386,344.232351,-344.203324,0.32,0,38.9788687,4.50662173e-05,1856
0.02804,0.01402,347.944347,-347.919615,0.64,0,39.2968178,4.43454435e-05,1856
0.02836,0.01418,351.663106,-351.63646,0.32,0,40.0114601,4.48565418e-05,2021
0.02868,0.01434,355.375809,-355.345625,0.32,0,40.3423293,4.77275712e-05,2021
0.029,0.0145,359.096053,-359.065233,0.32,0,40.6669455,4.56623621e-05,2021
0.02932,0.01466,362.816832,-362.780626,0.32,0,40.9868219,4.39491669e-05,2021
0.02964,0.01482,366.520702,-366.495942,0.32,0,41.3343892,4.36772671e-05,2021
0.02996,0.01498,370.226927,-370.206578,0.64,0,41.6820235,4.34346062e-05,2021
0.03028,0.01514,373.941706,-373.914879,0.32,0,42.3957283,4.25160859e-05,2189
0.0306,0.0153,377.649914,-377.626585,0.32,0,42.7387483,4.17077682e-05,2189
0.03092,0.01546,381.368609,-381.341025,0.32,0,43.0725493,4.04387288e-05,2189
0.03124,0.01562,385.071054,-385.050865,0.32,0,43.4025609,4.23343187e-05,2189
0.03156,0.01578,388.778407,-388.757257,0.32,0,43.7317481,4.10722232e-05,2189
0.03188,0.01594,392.48238,-392.465306,0.64,0,44.0567622,4.01514014e-05,2189
0.0322,0.0161,396.198572,-396.17578,0.32,0,44.7291973,3.82699675e-05,2345
0.03252,0.01626,399.908211,-399.874498,0.32,0,45.0660844,4.22434044e-05,2345
0.03284,0.01642,403.596936,-403.583738,0.32,0,45.3858683,4.01617455e-05,2345
0.03316,0.01658,407.301919,-407.282974,0.32,0,45.7223747,4.32241103e-05,2345
0.03348,0.01674,410.999107,-410.984022,0.32,0,46.0515823,3.89617346e-05,2345
0.0338,0.0169,414.691341,-414.678982,0.64,0,46.3781238,4.05079498e-05,2345
0.03412,0.01706,418.392666,-418.382305,0.32,0,47.0609665,4.20601251e-05,2513
0.03444,0.01722,422.090016,-422.07412,0.32,0,47.384223,4.19053331e-05,2513
0.03476,0.01738,425.786865,-425.774484,0.32,0,47.7082391,3.79571137e-05,2513
0.03508,0.01754,429.499329,-429.468695,0.32,0,48.0273478,4.06103423e-05,2513
0.0354,0.0177,433.196012,-433.166513,0.32,0,48.3373077,3.90694897e-05,2513
0.03572,0.01786,436.887611,-436.861311,0.64,0,48.6661391,3.99385142e-05,2513
0.03604,0.01802,440.58265,-440.555453,0.32,0,49.3218875,4.20105234e-05,2681
0.03636,0.01818,444.268918,-444.252919,0.32,0,49.6488171,3.95365823e-05,2681
0.03668,0.01834,447.952504,-447.93252,0.32,0,49.9688985,4.09061227e-05,2681
0.037,0.0185,451.638871,-451.623488,0.32,0,50.2885396,4.06679439e-05,2681
0.03732,0.01866,455.326022,-455.312226,0.32,0,50.604964,3.87648419e-05,2681
0.03764,0.01882,459.014983,-458.997924,0.64,0,50.9109318,3.7992228e-05,2681
0.03796,0.01898,462.705623,-462.687071,0.32,0,51.5519588,3.79627913e-05,2849
0.03828,0.01914,466.399304,-466.384834,0.32,0,51.8801842,3.39666741e-05,2849
0.0386,0.0193,470.085158,-470.071849,0.32,0,52.188045,3.63301622e-05,2849
0.03892,0.01946,473.786534,-473.757258,0.32,0,52.5090399,3.80142234e-05,2849
0.03924,0.01962,477.460121,-477.439557,0.32,0,52.8381424,3.81146184e-05,2849
0.03956,0.01978,481.133501,-481.122824,0.64,0,53.1696174,3.60965657e-05,2849
0.03988,0.01994,484.817091,-484.799888,0.32,0,53.8030741,3.63785012e-05,3017
0.0402,0.0201,488.48697,-488.47661,0.32,0,54.1097834,3.32375527e-05,3017
0.04052,0.02026,492.175107,-492.154879,0.32,0,54.4261668,3.61795413e-05,3017
0.04084,0.02042,495.849912,-495.836267,0.32,0,54.732069,3.52470709e-05,3017
0.04116,0.02058,499.538527,-499.520601,0.32,0,55.056761,3.29575741e-05,3017
0.04148,0.02074,503.235009,-503.203443,0.64,0,55.3609109,3.54613218e-05,3017
0.0418,0.0209,506.907742,-506.887774,0.32,0,55.9943495,3.26274815e-05,3185
0.04212,0.02106,510.583334,-510.563063,0.32,0,56.3199792,3.71140717e-05,3185
0.04244,0.02122,514.253086,-514.243514,0.32,0,56.6230137,3.50469181e-05,3185
0.04276,0.02138,517.926309,-517.911559,0.32,0,56.9303253,3.84746269e-05,3185
0.04308,0.02154,521.601334,-521.592335,0.32,0,57.2383554,3.3688724e-05,3185
0.0434,0.0217,525.267882,-525.259587,0.64,0,57.5513489,3.53662766e-05,3185
0.04372,0.02186,528.955233,-528.931003,0.32,0,58.2038202,3.34621136e-05,3338
0.04404,0.02202,532.623181,-532.605842,0.32,0,58.5399642,3.20544679e-05,3338
0.04436,0.02218,536.292434,-536.282243,0.32,0,58.8632596,3.35592251e-05,3338
0.04468,0.02234,539.968824,-539.952794,0.32,0,59.1599498,3.55951477e-05,3338
0.045,0.0225,543.645021,-543.623756,0.32,0,59.4832265,3.11898051e-05,3338
0.04532,0.02266,547.320101,-547.295646,0.64,0,59.8036251,3.37070762e-05,3338
0.04564,0.02282,550.988055,-550.964049,0.32,0,60.4505024,3.32613055e-05,3482
0.04596,0.02298,554.66059,-554.63426,0.32,0,60.7598479,3.21638907e-05,3482
0.04628,0.02314,558.309659,-558.295028,0.32,0,61.0822282,3.35789617e-05,3482
0.0466,0.0233,561.976526,-561.951784,0.32,0,61.3868871,3.345607e-05,3482
0.04692,0.02346,565.625403,-565.613141,0.32,0,61.7141788,3.13409153e-05,3482
0.04724,0.02362,569.284683,-569.275001,0.64,0,62.0281754,3.41512082e-05,3482
0.04756,0.02378,572.95014,-572.936049,0.32,0,62.7105794,3.47518503e-05,3626
0.04788,0.02394,576.612479,-576.598718,0.32,0,63.0305955,3.32087042e-05,3626
0.0482,0.0241,580.276511,-580.262351,0.32,0,63.341301,3.39785755e-05,3626
0.04852,0.02426,583.93723,-583.921002,0.32,0,63.652683,3.46847887e-05,3626
0.04884,0.02442,587.598171,-587.586045,0.32,0,63.9687457,3.45349439e-05,3626
0.04916,0.02458,591.255661,-591.245299,0.64,0,64.2654667,3.34231341e-05,3626
0.04948,0.02474,594.922859,-594.908759,0.32,0,64.9195833,3.20767926e-05,3770
0.0498,0.0249,598.569878,-598.563789,0.32,0,65.2198534,3.62447573e-05,3770
0.05012,0.02506,602.237359,-602.2192,0.32,0,65.5276074,3.44309996e-05,3770
0.05044,0.02522,605.886006,-605.879096,0.32,0,65.8288555,3.35668518e-05,3770
0.05076,0.02538,609.546916,-609.537105,0.32,0,66.1328752,3.42962946e-05,3770
0.05108,0.02554,613.203616,-613.195589,0.64,0,66.4340005,3.35540944e-05,3770
0.0514,0.0257,616.859802,-616.849199,0.32,0,67.0653009,3.32489962e-05,3914
0.05172,0.02586,620.525036,-620.499516,0.32,0,67.368082,3.25709342e-05,3914
0.05204,0.02602,624.186875,-624.157814,0.32,0,67.6883807,3.15589286e-05,3914
0.05236,0.02618,627.822921,-627.812298,0.32,0,67.994065,3.33375478e-05,3914
0.05268,0.02634,631.468266,-631.463141,0.32,0,68.2981164,3.46310859e-05,3914
0.053,0.0265,635.116652,-635.108617,0.64,0,68.6040785,3.2812147e-05,3914
0.05332,0.02666,638.770848,-638.76288,0.32,0,69.245239,3.45159554e-05,4058
0.05364,0.02682,642.420504,-642.414492,0.32,0,69.5496204,3.27293298e-05,4058
0.05396,0.02698,646.068972,-646.063896,0.32,0,69.8559113,3.32051519e-05,4058
0.05428,0.02714,649.732898,-649.705571,0.32,0,70.1767802,3.3272456e-05,4058
0.0546,0.0273,653.364495,-653.357165,0.32,0,70.4769595,3.21952684e-05,4058
0.05492,0.02746,657.024411,-657.000721,0.64,0,70.779057,3.19181423e-05,4058
0.05524,0.02762,660.672326,-660.642389,0.32,0,71.4463305,3.47250319e-05,4202
0.05556,0.02778,664.296654,-664.288616,0.32,0,71.7680836,3.39534953e-05,4202
0.05588,0.02794,667.962685,-667.929996,0.32,0,72.0704386,3.29125172e-05,4202
0.0562,0.0281,671.587235,-671.57118,0.32,0,72.3774712,3.53185375e-05,4202
0.05652,0.02826,675.247637,-675.210654,0.32,0,72.6918674,3.19430093e-05,4202
0.05684,0.02842,678.87512,-678.850305,0.64,0,73.0073473,3.60857219e-05,4202
0.05716,0.02858,682.529458,-682.491787,0.32,0,73.6585898,3.10821769e-05,4346
0.05748,0.02874,686.154969,-686.132106,0.32,0,73.9843829,3.38977026e-05,4346
0.0578,0.0289,689.799921,-689.773289,0.32,0,74.3160679,3.14836813e-05,4346
0.05812,0.02906,693.431194,-693.413548,0.32,0,74.6422253,3.03458816e-05,4346
0.05844,0.02922,697.079655,-697.053259,0.32,0,74.9632528,3.17779166e-05,4346
0.05876,0.02938,700.710246,-700.693025,0.64,0,75.2663062,3.32503284e-05,4346
0.05908,0.02954,704.372384,-704.32659,0.32,0,75.9505184,3.1730115e-05,4490
0.0594,0.0297,707.983755,-707.967264,0.32,0,76.2648437,3.18474902e-05,4490
0.05972,0.02986,711.636727,-711.604852,0.32,0,76.5998483,3.08557843e-05,4490
0.06004,0.03002,715.275309,-715.242259,0.32,0,76.9375589,3.16463389e-05,4490
0.06036,0.03018,718.896335,-718.878618,0.32,0,77.2475276,3.43461443e-05,4490
0.06068,0.03034,722.534348,-722.512023,0.64,0,77.567915,3.23013033e-05,4490
0.061,0.0305,726.163769,-726.144462,0.32,0,78.2189,3.18719484e-05,4634
0.06132,0.03066,729.783333,-729.7773,0.32,0,78.5139852,3.163762e-05,4634
0.06164,0.03082,733.421661,-733.406586,0.32,0,78.8482182,3.1536871e-05,4634
0.06196,0.03098,737.041417,-737.034187,0.32,0,79.1585431,3.022879e-05,4634
0.06228,0.03114,740.668082,-740.6639,0.32,0,79.4923518,3.26344111e-05,4634
0.0626,0.0313,744.306777,-744.299301,0.64,0,79.810008,2.97690926e-05,4634
0.06292,0.03146,747.936958,-747.932959,0.32,0,80.4757771,3.08093223e-05,4778
0.06324,0.03162,751.565099,-751.563194,0.32,0,80.7778871,3.07980678e-05,4778
0.06356,0.03178,755.192122,-755.190097,0.32,0,81.0860314,2.92202946e-05,4778
0.06388,0.03194,758.812954,-758.812346,0.32,0,81.404804,3.19625917e-05,4778
0.0642,0.0321,762.438623,-762.437587,0.32,0,81.7294459,3.1549463e-05,4778
0.06452,0.03226,766.05046,-766.054819,0.64,0,82.0486512,2.95875233e-05,4778
0.06484,0.03242,769.677479,-769.676409,0.32,0,82.6964552,2.96789576e-05,4922
0.06516,0.03258,773.292827,-773.2926,0.32,0,82.9954011,3.09945213e-05,4922
0.06548,0.03274,776.908395,-776.908705,0.32,0,83.2816992,3.12798103e-05,4922
0.0658,0.0329,780.526639,-780.526735,0.32,0,83.5806518,3.12543473e-05,4922
0.06612,0.03306,784.145948,-784.144167,0.32,0,83.8914728,3.02830055e-05,4922
0.06644,0.03322,787.765634,-787.763865,0.64,0,84.2064083,3.18881868e-05,4922
0.06676,0.03338,791.382008,-791.382054,0.32,0,84.8669951,3.2125209e-05,5066
0.06708,0.03354,794.996891,-794.994031,0.32,0,85.2142096,3.08966775e-05,5066
0.0674,0.0337,798.603314,-798.606106,0.32,0,85.5125077,3.11409159e-05,5066
0.06772,0.03386,802.223722,-802.214489,0.32,0,85.7996883,3.15824501e-05,5066
0.06804,0.03402,805.820265,-805.824229,0.32,0,86.0927775,3.53316195e-05,5066
0.06836,0.03418,809.443833,-809.432346,0.64,0,86.4062717,3.28660949e-05,5066
0.06868,0.03434,813.045147,-813.043013,0.32,0,87.0830767,3.24068122e-05,5210
0.069,0.0345,816.672682,-816.662884,0.32,0,87.3926282,3.14097884e-05,5210
0.06932,0.03466,820.274219,-820.272426,0.32,0,87.6815677,3.17689821e-05,5210
0.06964,0.03482,823.8968,-823.886168,0.32,0,87.9886227,3.08187166e-05,5210
0.06996,0.03498,827.500531,-827.491281,0.32,0,88.2980721,3.05246413e-05,5210
0.07028,0.03514,831.120411,-831.100543,0.64,0,88.6005955,3.09963068e-05,5210
0.0706,0.0353,834.714794,-834.709156,0.32,0,89.2221804,3.07814736e-05,5354
0.07092,0.03546,838.336673,-838.313881,0.32,0,89.5118532,3.13628885e-05,5354
0.07124,0.03562,841.930594,-841.917114,0.32,0,89.8463714,3.15375329e-05,5354
0.07156,0.03578,845.538942,-845.526322,0.32,0,90.1430724,3.27847535e-05,5354
0.07188,0.03594,849.149192,-849.131593,0.32,0,90.4518995,3.09646034e-05,5354
0.0722,0.0361,852.761239,-852.740082,0.64,0,90.742893,3.2660266e-05,5354
0.07252,0.03626,856.369934,-856.356702,0.32,0,91.4206083,3.14412553e-05,5498
0.07284,0.03642,859.985551,-859.970981,0.32,0,91.7528815,3.15845742e-05,5498
0.07316,0.03658,863.606104,-863.578115,0.32,0,92.0762668,3.06983119e-05,5498
0.07348,0.03674,867.221053,-867.183298,0.32,0,92.3810747,3.06697124e-05,5498
0.0738,0.0369,870.808341,-870.788112,0.32,0,92.6724994,2.90546032e-05,5498
0.07412,0.03706,874.415648,-874.384021,0.64,0,92.95857,3.28630048e-05,5498
0.07444,0.03722,877.987792,-877.985155,0.32,0,93.6096122,3.44781116e-05,5642
0.07476,0.03738,881.595729,-881.572594,0.32,0,93.9437261,3.41437915e-05,5642
0.07508,0.03754,885.177751,-885.176036,0.32,0,94.2715375,3.2210038e-05,5642
0.0754,0.0377,888.785233,-888.771243,0.32,0,94.6082699,3.37098459e-05,5642
0.07572,0.03786,892.379549,-892.376516,0.32,0,94.9330063,3.10233689e-05,5642
0.07604,0.03802,895.980316,-895.97479,0.64,0,95.2439899,3.42875281e-05,5642
0.07636,0.03818,899.575818,-899.573055,0.32,0,95.9030964,3.1608717e-05,5786
0.07668,0.03834,903.185339,-903.160385,0.32,0,96.2050028,3.18938705e-05,5786
0.077,0.0385,906.756479,-906.750971,0.32,0,96.5258281,3.35975833e-05,5786
0.07732,0.03866,910.366555,-910.339073,0.32,0,96.8386033,3.19401404e-05,5786
0.07764,0.03882,913.933504,-913.930853,0.32,0,97.1465931,3.29290402e-05,5786
0.07796,0.03898,917.533946,-917.515014,0.64,0,97.4504926,3.36728033e-05,5786
0.07828,0.03914,921.106778,-921.105543,0.32,0,98.0866129,3.2785163e-05,5918
0.0786,0.0393,924.709824,-924.69461,0.32,0,98.3887591,3.43059047e-05,5918
0.07892,0.03946,928.284641,-928.285245,0.32,0,98.6859114,3.42651806e-05,5918
0.07924,0.03962,931.878167,-931.873593,0.32,0,98.9917827,3.1038425e-05,5918
0.07956,0.03978,935.467197,-935.461262,0.32,0,99.2870598,3.33116664e-05,5918
0.07988,0.03994,939.035751,-939.046357,0.64,0,99.599088,3.11043889e-05,5918
0.0802,0.0401,942.635608,-942.627589,0.32,0,100.23074,3.2540854e-05,6050
0.08052,0.04026,946.193808,-946.199016,0.32,0,100.538733,3.47767403e-05,6050
0.08084,0.04042,949.791591,-949.782134,0.32,0,100.85709,3.04824719e-05,6050
0.08116,0.04058,953.363071,-953.370174,0.32,0,101.163713,3.12759735e-05,6050
0.08148,0.04074,956.946143,-956.944935,0.32,0,101.468499,3.16788554e-05,6050
0.0818,0.0409,960.512764,-960.515945,0.64,0,101.7721,3.05834619e-05,6050
0.08212,0.04106,964.101671,-964.088639,0.32,0,102.425663,3.09887645e-05,6182
0.08244,0.04122,967.658363,-967.659776,0.32,0,102.732166,3.32262569e-05,6182
0.08276,0.04138,971.231668,-971.225674,0.32,0,103.025769,3.07064041e-05,6182
0.08308,0.04154,974.80487,-974.800938,0.32,0,103.328164,2.95835613e-05,6182
0.0834,0.0417,978.381719,-978.370823,0.32,0,103.615646,3.13735273e-05,6182
0.08372,0.04186,981.946346,-981.939436,0.64,0,103.941627,2.97584385e-05,6182
0.08404,0.04202,985.526453,-985.516505,0.32,0,104.551735,2.94578322e-05,6314
0.08436,0.04218,989.095057,-989.086602,0.32,0,104.851029,2.94455546e-05,6314
0.08468,0.04234,992.663639,-992.657815,0.32,0,105.171812,3.06136696e-05,6314
0.085,0.0425,996.231695,-996.220861,0.32,0,105.475467,3.08561495e-05,6314
0.08532,0.04266,999.785017,-999.788368,0.32,0,105.763725,3.10890032e-05,6314
0.08564,0.04282,1003.35799,-1003.3471,0.64,0,106.07853,3.0083521e-05,6314
0.08596,0.04298,1006.90622,-1006.91122,0.32,0,106.783121,3.01590461e-05,6446
0.08628,0.04314,1010.49889,-1010.47748,0.32,0,107.097727,3.20925302e-05,6446
0.0866,0.0433,1014.03362,-1014.04525,0.32,0,107.374765,3.12565163e-05,6446
0.08692,0.04346,1017.62649,-1017.61464,0.32,0,107.699317,2.99427943e-05,6446
0.08724,0.04362,1021.17109,-1021.18057,0.32,0,107.99402,3.24437959e-05,6446
0.08756,0.04378,1024.7628,-1024.75017,0.64,0,108.296456,3.16702337e-05,6446
0.08788,0.04394,1028.30669,-1028.31436,0.32,0,108.954702,2.90890465e-05,6566
0.0882,0.0441,1031.87326,-1031.87469,0.32,0,109.249478,3.02801459e-05,6566
0.08852,0.04426,1035.43791,-1035.43563,0.32,0,109.546454,2.89100697e-05,6566
0.08884,0.04442,1038.99524,-1038.98817,0.32,0,109.84878,3.03690331e-05,6566
0.08916,0.04458,1042.55136,-1042.54283,0.32,0,110.151661,2.90613243e-05,6566
0.08948,0.04474,1046.09378,-1046.09,0.64,0,110.464872,3.37663769e-05,6566
0.0898,0.0449,1049.6507,-1049.64053,0.32,0,111.108932,3.21282954e-05,6674
0.09012,0.04506,1053.1998,-1053.18575,0.32,0,111.429813,3.51334181e-05,6674
0.09044,0.04522,1056.74962,-1056.74259,0.32,0,111.741134,3.13672474e-05,6674
0.09076,0.04538,1060.30325,-1060.29821,0.32,0,112.035841,3.42297694e-05,6674
0.09108,0.04554,1063.86449,-1063.85913,0.32,0,112.33137,3.20242062e-05,6674
0.0914,0.0457,1067.41547,-1067.40876,0.64,0,112.642458,3.12409388e-05,6674
0.09172,0.04586,1070.9898,-1070.96372,0.32,0,113.285833,3.22148058e-05,6782
0.09204,0.04602,1074.52528,-1074.51423,0.32,0,113.591101,3.37816757e-05,6782
0.09236,0.04618,1078.06269,-1078.06274,0.32,0,113.86705,3.24354539e-05,6782
0.09268,0.04634,1081.59884,-1081.59625,0.32,0,114.185853,3.29567822e-05,6782
0.093,0.0465,1085.13707,-1085.1374,0.32,0,114.483862,3.14940274e-05,6782
0.09332,0.04666,1088.70184,-1088.67125,0.64,0,114.783668,3.23595672e-05,6782
0.09364,0.04682,1092.20994,-1092.21916,0.32,0,115.416483,3.16412812e-05,6890
0.09396,0.04698,1095.75699,-1095.75688,0.32,0,115.719859,3.15848049e-05,6890
0.09428,0.04714,1099.3002,-1099.30334,0.32,0,116.015155,2.93200017e-05,6890
0.0946,0.0473,1102.84565,-1102.84616,0.32,0,116.324137,3.28766191e-05,6890
0.09492,0.04746,1106.38206,-1106.38876,0.32,0,116.618741,3.12844953e-05,6890
0.09524,0.04762,1109.9245,-1109.92444,0.64,0,116.928085,3.15569996e-05,6890
0.09556,0.04778,1113.46376,-1113.46536,0.32,0,117.559294,3.19344662e-05,6998
0.09588,0.04794,1116.995,-1117.00015,0.32,0,117.843239,3.26352536e-05,6998
0.0962,0.0481,1120.53183,-1120.53334,0.32,0,118.137953,3.31079768e-05,6998
0.09652,0.04826,1124.06649,-1124.06599,0.32,0,118.425405,3.24933456e-05,6998
0.09684,0.04842,1127.60924,-1127.60369,0.32,0,118.726725,3.1134587e-05,6998
0.09716,0.04858,1131.13859,-1131.13702,0.64,0,119.02357,3.37179951e-05,6998
0.09748,0.04874,1134.6727,-1134.67266,0.32,0,119.653155,3.11167814e-05,7094
0.0978,0.0489,1138.21022,-1138.20242,0.32,0,119.952912,3.13075511e-05,7094
0.09812,0.04906,1141.74067,-1141.73777,0.32,0,120.23445,3.07450775e-05,7094
0.09844,0.04922,1145.26968,-1145.26528,0.32,0,120.516623,3.17586092e-05,7094
0.09876,0.04938,1148.79272,-1148.79177,0.32,0,120.816879,2.98213368e-05,7094
0.09908,0.04954,1152.31592,-1152.31535,0.64,0,121.113821,3.08082971e-05,7094
0.0994,0.0497,1155.84645,-1155.8393,0.32,0,121.713763,3.13282905e-05,7202
0.09972,0.04986,1159.37017,-1159.35062,0.32,0,122.010771,3.13644694e-05,7202
0.10004,0.05002,1162.89283,-1162.87388,0.32,0,122.326977,3.06003315e-05,7202
0.10036,0.05018,1166.42872,-1166.39118,0.32,0,122.623405,3.27570519e-05,7202
0.10068,0.05034,1169.94104,-1169.91819,0.32,0,122.93198,3.22042512e-05,7202
0.101,0.0505,1173.44955,-1173.4328,0.64,0,123.221382,3.21141711e-05,7202
0.10132,0.05066,1176.99012,-1176.95696,0.32,0,123.839983,3.23413259e-05,7307
0.10164,0.05082,1180.48128,-1180.47523,0.32,0,124.146936,3.13001283e-05,7307
0.10196,0.05098,1184.01089,-1184.00175,0.32,0,124.453214,3.25311692e-05,7307
0.10228,0.05114,1187.53697,-1187.50973,0.32,0,124.761094,3.49347221e-05,7307
0.1026,0.0513,1191.0624,-1191.02249,0.32,0,125.064712,3.18185516e-05,7307
0.10292,0.05146,1194.54671,-1194.53741,0.64,0,125.363971,3.31638717e-05,7307
0.10324,0.05162,1198.04989,-1198.05437,0.32,0,125.982667,3.21407984e-05,7403
0.10356,0.05178,1201.58782,-1201.57011,0.32,0,126.266613,3.3216096e-05,7403
0.10388,0.05194,1205.10823,-1205.08009,0.32,0,126.559406,3.29592757e-05,7403
0.1042,0.0521,1208.59702,-1208.5991,0.32,0,126.859872,3.16465208e-05,7403
0.10452,0.05226,1212.14172,-1212.10985,0.32,0,127.15031,3.40427579e-05,7403
0.10484,0.05242,1215.62368,-1215.61362,0.64,0,127.476883,3.21203005e-05,7403
0.10516,0.05258,1219.11681,-1219.11334,0.32,0,128.14385,3.33986421e-05,7499
0.10548,0.05274,1222.62614,-1222.61287,0.32,0,128.469603,3.40364454e-05,7499
0.1058,0.0529,1226.10365,-1226.11079,0.32,0,128.77915,3.33278885e-05,7499
0.10612,0.05306,1229.63184,-1229.59872,0.32,0,129.074308,3.35168037e-05,7499
0.10644,0.05322,1233.10406,-1233.10405,0.32,0,129.409163,3.28339807e-05,7499
0.10676,0.05338,1236.60221,-1236.60764,0.64,0,129.717594,3.2097478e-05,7499
0.10708,0.05354,1240.11489,-1240.10573,0.32,0,130.343289,3.44638024e-05,7571
0.1074,0.0537,1243.61837,-1243.60113,0.32,0,130.632873,3.23747204e-05,7571
0.10772,0.05386,1247.09795,-1247.10264,0.32,0,130.954399,3.14259989e-05,7571
0.10804,0.05402,1250.61017,-1250.59061,0.32,0,131.256091,3.68023815e-05,7571
0.10836,0.05418,1254.09243,-1254.0858,0.32,0,131.543337,3.25749714e-05,7571
0.10868,0.05434,1257.59836,-1257.57183,0.64,0,131.863858,3.38726925e-05,7571
0.109,0.0545,1261.07059,-1261.0703,0.32,0,132.502044,3.2875621e-05,7643
0.10932,0.05466,1264.55981,-1264.56596,0.32,0,132.822055,3.39570363e-05,7643
0.10964,0.05482,1268.04836,-1268.05936,0.32,0,133.098918,3.27455157e-05,7643
0.10996,0.05498,1271.5749,-1271.54086,0.32,0,133.405154,3.46888755e-05,7643
0.11028,0.05514,1275.04245,-1275.03055,0.32,0,133.693629,3.28556195e-05,7643
0.1106,0.0553,1278.51513,-1278.51928,0.64,0,133.976823,3.27163572e-05,7643
0.11092,0.05546,1282.01581,-1282.00114,0.32,0,134.590558,3.15984225e-05,7715
0.11124,0.05562,1285.47637,-1285.48122,0.32,0,134.888762,3.05704582e-05,7715
0.11156,0.05578,1289.00891,-1288.961,0.32,0,135.166299,3.00052886e-05,7715
0.11188,0.05594,1292.45046,-1292.45137,0.32,0,135.472202,3.10863229e-05,7715
0.1122,0.0561,1295.96158,-1295.93217,0.32,0,135.76727,3.08237787e-05,7715
0.11252,0.05626,1299.44214,-1299.40236,0.64,0,136.064665,3.4580859e-05,7715
0.11284,0.05642,1302.8993,-1302.88269,0.32,0,136.685848,3.14043127e-05,7787
0.11316,0.05658,1306.38861,-1306.35083,0.32,0,137.002913,3.30012407e-05,7787
0.11348,0.05674,1309.85291,-1309.82644,0.32,0,137.328284,3.09778109e-05,7787
0.1138,0.0569,1313.32339,-1313.30249,0.32,0,137.664809,3.01890888e-05,7787
0.11412,0.05706,1316.81335,-1316.77082,0.32,0,137.97069,3.12584685e-05,7787
0.11444,0.05722,1320.24636,-1320.24272,0.64,0,138.272426,3.40117047e-05,7787
0.11476,0.05738,1323.75025,-1323.70655,0.32,0,138.886251,3.05103405e-05,7859
0.11508,0.05754,1327.1825,-1327.17963,0.32,0,139.196103,3.23769532e-05,7859
0.1154,0.0577,1330.67302,-1330.65069,0.32,0,139.500167,3.30989772e-05,7859
0.11572,0.05786,1334.13064,-1334.12247,0.32,0,139.789249,3.18093025e-05,7859
0.11604,0.05802,1337.60264,-1337.59156,0.32,0,140.077263,3.15482198e-05,7859
0.11636,0.05818,1341.06655,-1341.05322,0.64,0,140.359737,3.14635798e-05,7859
0.11668,0.05834,1344.55003,-1344.51986,0.32,0,140.968009,3.11633945e-05,7931
0.117,0.0585,1348.0054,-1347.98299,0.32,0,141.241607,3.23166289e-05,7931
0.11732,0.05866,1351.46055,-1351.44585,0.32,0,141.544815,3.40298536e-05,7931
0.11764,0.05882,1354.91667,-1354.90654,0.32,0,141.828197,3.14636863e-05,7931
0.11796,0.05898,1358.37587,-1358.37339,0.32,0,142.127181,3.38196111e-05,7931
0.11828,0.05914,1361.83853,-1361.83356,0.64,0,142.446241,3.14101119e-05,7931
0.1186,0.0593,1365.2969,-1365.30008,0.32,0,143.058659,2.93752291e-05,8003
0.11892,0.05946,1368.76628,-1368.76189,0.32,0,143.352188,3.17411916e-05,8003
0.11924,0.05962,1372.21944,-1372.22789,0.32,0,143.656207,3.0250007e-05,8003
0.11956,0.05978,1375.68315,-1375.68553,0.32,0,143.957963,3.19611666e-05,8003
0.11988,0.05994,1379.13162,-1379.13358,0.32,0,144.259989,3.04227002e-05,8003
0.1202,0.0601,1382.57971,-1382.58828,0.64,0,144.583287,3.29725722e-05,8003
0.12052,0.06026,1386.02665,-1386.0305,0.32,0,145.207095,3.21727702e-05,8075
0.12084,0.06042,1389.46617,-1389.47918,0.32,0,145.537589,3.26206889e-05,8075
0.12116,0.06058,1392.91337,-1392.92122,0.32,0,145.831512,3.06389909e-05,8075
0.12148,0.06074,1396.35051,-1396.37031,0.32,0,146.123883,3.19772598e-05,8075
0.1218,0.0609,1399.80497,-1399.817,0.32,0,146.430617,2.90042688e-05,8075
0.12212,0.06106,1403.24533,-1403.26015,0.64,0,146.703545,3.32615316e-05,8075
0.12244,0.06122,1406.70001,-1406.70096,0.32,0,147.383488,3.26158183e-05,8147
0.12276,0.06138,1410.12481,-1410.14361,0.32,0,147.662925,3.43727591e-05,8147
0.12308,0.06154,1413.5786,-1413.58266,0.32,0,147.969228,3.13117923e-05,8147
0.1234,0.0617,1417.01383,-1417.01954,0.32,0,148.272894,3.46110553e-05,8147
0.12372,0.06186,1420.45228,-1420.45948,0.32,0,148.555541,3.29039392e-05,8147
0.12404,0.06202,1423.88156,-1423.89543,0.64,0,148.855506,3.52901325e-05,8147
0.12436,0.06218,1427.32589,-1427.32821,0.32,0,149.494906,3.01041582e-05,8219
0.12468,0.06234,1430.77161,-1430.76458,0.32,0,149.794213,3.38358173e-05,8219
0.125,0.0625,1434.19527,-1434.19602,0.32,0,150.07388,3.11818324e-05,8219
0.12532,0.06266,1437.63857,-1437.62626,0.32,0,150.352549,3.43545973e-05,8219
0.12564,0.06282,1441.06167,-1441.05759,0.32,0,150.666882,3.21640139e-05,8219
0.12596,0.06298,1444.47954,-1444.4788,0.64,0,150.935029,3.44797865e-05,8219
0.12628,0.06314,1447.90681,-1447.90007,0.32,0,151.555701,3.01635752e-05,8291
0.1266,0.0633,1451.33657,-1451.32383,0.32,0,151.83685,3.4345163e-05,8291
0.12692,0.06346,1454.75617,-1454.74853,0.32,0,152.109421,3.22985843e-05,8291
0.12724,0.06362,1458.17775,-1458.17373,0.32,0,152.403953,3.23241205e-05,8291
0.12756,0.06378,1461.59983,-1461.58952,0.32,0,152.717236,3.26545956e-05,8291
0.12788,0.06394,1465.01587,-1465.00907,0.64,0,152.980695,3.46017224e-05,8291
0.1282,0.0641,1468.43691,-1468.42585,0.32,0,153.638122,3.13509939e-05,8363
0.12852,0.06426,1471.85349,-1471.84855,0.32,0,153.92577,3.17992239e-05,8363
0.12884,0.06442,1475.27342,-1475.25984,0.32,0,154.217788,3.19694863e-05,8363
0.12916,0.06458,1478.6832,-1478.67686,0.32,0,154.51472,3.28623661e-05,8363
0.12948,0.06474,1482.0947,-1482.09037,0.32,0,154.819149,3.15798564e-05,8363
0.1298,0.0649,1485.51729,-1485.50162,0.64,0,155.108989,3.50559874e-05,8363
0.13012,0.06506,1488.91353,-1488.91328,0.32,0,155.74139,2.92353249e-05,8435
0.13044,0.06522,1492.33307,-1492.32295,0.32,0,156.03948,3.19583904e-05,8435
0.13076,0.06538,1495.73817,-1495.73822,0.32,0,156.329203,3.06983517e-05,8435
0.13108,0.06554,1499.15566,-1499.1565,0.32,0,156.614833,2.90645414e-05,8435
0.1314,0.0657,1502.56437,-1502.56321,0.32,0,156.899544,3.28290045e-05,8435
0.13172,0.06586,1505.9767,-1505.97923,0.64,0,157.171784,3.00705353e-05,8435
0.13204,0.06602,1509.38758,-1509.38631,0.32,0,157.781947,3.32058818e-05,8507
0.13236,0.06618,1512.7933,-1512.79162,0.32,0,158.056733,3.18724855e-05,8507
0.13268,0.06634,1516.18829,-1516.18853,0.32,0,158.351959,3.43754314e-05,8507
0.133,0.0665,1519.59381,-1519.59426,0.32,0,158.648618,3.09464385e-05,8507
0.13332,0.06666,1523.00106,-1522.99412,0.32,0,158.929151,3.37897182e-05,8507
0.13364,0.06682,1526.41054,-1526.40244,0.64,0,159.213217,3.23072422e-05,8507
0.13396,0.06698,1529.80894,-1529.80383,0.32,0,159.858362,3.58783588e-05,8579
0.13428,0.06714,1533.21868,-1533.19909,0.32,0,160.18524,3.23552733e-05,8579
0.1346,0.0673,1536.59232,-1536.59576,0.32,0,160.494716,3.26818409e-05,8579
0.13492,0.06746,1539.99446,-1539.99773,0.32,0,160.792615,3.16846817e-05,8579
0.13524,0.06762,1543.37736,-1543.38653,0.32,0,161.104658,3.24184946e-05,8579
0.13556,0.06778,1546.77666,-1546.77527,0.64,0,161.387838,3.31754521e-05,8579
0.13588,0.06794,1550.1592,-1550.15184,0.32,0,162.012753,3.32093214e-05,8651
0.1362,0.0681,1553.53239,-1553.53996,0.32,0,162.308346,3.33499538e-05,8651
0.13652,0.06826,1556.91268,-1556.92243,0.32,0,162.607318,3.54117981e-05,8651
0.13684,0.06842,1560.3051,-1560.31368,0.32,0,162.89729,3.12212302e-05,8651
0.13716,0.06858,1563.68684,-1563.69754,0.32,0,163.185662,3.41527775e-05,8651
0.13748,0.06874,1567.08145,-1567.08231,0.64,0,163.460234,3.30782702e-05,8651
0.1378,0.0689,1570.45877,-1570.46521,0.32,0,164.088444,3.17573279e-05,8723
0.13812,0.06906,1573.83058,-1573.84143,0.32,0,164.360415,3.1448132e-05,8723
0.13844,0.06922,1577.21097,-1577.2192,0.32,0,164.650835,3.25794549e-05,8723
0.13876,0.06938,1580.59706,-1580.5923,0.32,0,164.948843,3.30535201e-05,8723
0.13908,0.06954,1583.97604,-1583.96317,0.32,0,165.235199,3.27666271e-05,8723
0.1394,0.0697,1587.34438,-1587.33084,0.64,0,165.526849,3.26127972e-05,8723
0.13972,0.06986,1590.69608,-1590.69513,0.32,0,166.159592,3.32775281e-05,8795
0.14004,0.07002,1594.07261,-1594.06701,0.32,0,166.450156,3.18731791e-05,8795
0.14036,0.07018,1597.42722,-1597.43718,0.32,0,166.753518,3.36289401e-05,8795
0.14068,0.07034,1600.80228,-1600.80177,0.32,0,167.031805,3.26923828e-05,8795
0.141,0.0705,1604.16548,-1604.16797,0.32,0,167.302843,3.43395138e-05,8795
0.14132,0.07066,1607.53358,-1607.53963,0.64,0,167.586654,3.21198502e-05,8795
0.14164,0.07082,1610.90446,-1610.90564,0.32,0,168.182332,3.34291612e-05,8867
0.14196,0.07098,1614.26714,-1614.27246,0.32,0,168.477479,3.17971494e-05,8867
0.14228,0.07114,1617.63371,-1617.63584,0.32,0,168.756803,3.24862962e-05,8867
0.1426,0.0713,1620.99024,-1620.9917,0.32,0,169.062948,3.46447709e-05,8867
0.14292,0.07146,1624.34596,-1624.34834,0.32,0,169.343245,3.24001217e-05,8867
0.14324,0.07162,1627.69819,-1627.6954,0.64,0,169.626122,3.25908364e-05,8867
0.14356,0.07178,1631.0488,-1631.05147,0.32,0,170.238647,3.24553552e-05,8939
0.14388,0.07194,1634.39294,-1634.39766,0.32,0,170.510432,3.21566944e-05,8939
0.1442,0.0721,1637.76229,-1637.75855,0.32,0,170.812089,3.20275613e-05,8939
0.14452,0.07226,1641.11346,-1641.11165,0.32,0,171.073089,3.03930744e-05,8939
0.14484,0.07242,1644.49017,-1644.46832,0.32,0,171.368893,3.11005462e-05,8939
0.14516,0.07258,1647.83686,-1647.82331,0.64,0,171.6404,2.97022186e-05,8939
0.14548,0.07274,1651.19008,-1651.17599,0.32,0,172.229454,3.13873261e-05,9011
0.1458,0.0729,1654.53239,-1654.51997,0.32,0,172.529846,3.19379614e-05,9011
0.14612,0.07306,1657.87953,-1657.86664,0.32,0,172.807451,2.92242467e-05,9011
0.14644,0.07322,1661.22202,-1661.19631,0.32,0,173.085877,3.25076937e-05,9011
0.14676,0.07338,1664.5433,-1664.54597,0.32,0,173.356028,3.04895132e-05,9011
0.14708,0.07354,1667.89754,-1667.87802,0.64,0,173.66513,3.35471905e-05,9011
0.1474,0.0737,1671.22557,-1671.21915,0.32,0,174.240684,3.04587951e-05,9083
0.14772,0.07386,1674.56618,-1674.55299,0.32,0,174.514344,3.30638657e-05,9083
0.14804,0.07402,1677.90562,-1677.89274,0.32,0,174.805487,3.02686054e-05,9083
0.14836,0.07418,1681.22932,-1681.22777,0.32,0,175.07122,3.44189021e-05,9083
0.14868,0.07434,1684.56419,-1684.56012,0.32,0,175.348053,3.26482934e-05,9083
0.149,0.0745,1687.89989,-1687.88379,0.64,0,175.636406,3.47312399e-05,9083
0.14932,0.07466,1691.21202,-1691.21514,0.32,0,176.226619,3.11156917e-05,9155
0.14964,0.07482,1694.54325,-1694.54389,0.32,0,176.520458,3.22803794e-05,9155
0.14996,0.07498,1697.86827,-1697.87453,0.32,0,176.802624,3.1354862e-05,9155
0.15028,0.07514,1701.20369,-1701.19884,0.32,0,177.090667,3.37337337e-05,9155
0.1506,0.0753,1704.5261,-1704.52609,0.32,0,177.367203,3.16311037e-05,9155
0.15092,0.07546,1707.84811,-1707.84412,0.64,0,177.676846,3.17858977e-05,9155
0.15124,0.07562,1711.16483,-1711.1625,0.32,0,178.277842,3.19852179e-05,9227
0.15156,0.07578,1714.47669,-1714.48177,0.32,0,178.576735,3.1438192e-05,9227
0.15188,0.07594,1717.81678,-1717.80157,0.32,0,178.840785,2.82247478e-05,9227
0.1522,0.0761,1721.12813,-1721.1295,0.32,0,179.156636,2.96646978e-05,9227
0.15252,0.07626,1724.45993,-1724.45906,0.32,0,179.435507,2.7398e-05,9227
0.15284,0.07642,1727.78495,-1727.77653,0.64,0,179.722605,2.93113445e-05,9227
