# ADR90 WP-A2 plastic field at CHECKPOINT s/B=0.01 (actual 0.010020), build afb95c40c9e3da1cc97d6aabe8168644c53d0e82 (expected afb95c40c9e3da1cc97d6aabe8168644c53d0e82), leg h1.0_e0.6944, q_foot=254.0494 kPa
ele,xc,zc,hx,hz,vol,eps_q_p,eta_grav
1,-26.4626081,-17.706199,7.07478378,4.58760194,16.2281459,1.24942638e-06,0.855053698
2,-26.4626081,-13.6329249,7.07478378,3.55894634,12.5893879,5.86279827e-06,0.855053698
3,-26.4626081,-10.4729811,7.07478378,2.76094116,9.76653089,1.1614877e-05,0.855053698
4,-26.4626081,-8.02157615,7.07478378,2.1418688,7.57662931,1.6976342e-05,0.855053698
5,-26.4626081,-6.11983775,7.07478378,1.66160801,5.87775869,2.16759995e-05,0.855053698
6,-26.4626081,-4.64451687,7.07478378,1.28903375,4.55981753,2.57185806e-05,0.855053698
7,-26.4626081,-3.5,7.07478378,1,3.53739189,2.925724e-05,0.855053698
8,-26.4626081,-2.5,7.07478378,1,3.53739189,3.2846614e-05,0.855053698
9,-26.4626081,-1.5,7.07478378,1,3.53739189,3.72783941e-05,0.855053698
10,-26.4626081,-0.5,7.07478378,1,3.53739189,4.35593392e-05,0.855053698
11,-20.1552847,-17.706199,5.539863,4.58760194,12.7073431,5.38443755e-06,0.855053698
12,-20.1552847,-13.6329249,5.539863,3.55894634,9.85803758,1.10485949e-05,0.855053698
13,-20.1552847,-10.4729811,5.539863,2.76094116,7.64761791,1.77869065e-05,0.855053698
14,-20.1552847,-8.02157615,5.539863,2.1418688,5.93282985,2.35328283e-05,0.855053698
15,-20.1552847,-6.11983775,5.539863,1.66160801,4.60254036,2.79169287e-05,0.855053698
16,-20.1552847,-4.64451687,5.539863,1.28903375,3.57053519,3.1589405e-05,0.855053698
17,-20.1552847,-3.5,5.539863,1,2.7699315,3.47632413e-05,0.855053698
18,-20.1552847,-2.5,5.539863,1,2.7699315,3.79092022e-05,0.855053698
19,-20.1552847,-1.5,5.539863,1,2.7699315,4.19315727e-05,0.855053698
20,-20.1552847,-0.5,5.539863,1,2.7699315,4.84698751e-05,0.855053698
21,-15.2163765,-17.706199,4.33795336,4.58760194,9.95040164,1.28238699e-05,0.855053698
22,-15.2163765,-13.6329249,4.33795336,3.55894634,7.71927162,2.10505836e-05,0.855053698
23,-15.2163765,-10.4729811,4.33795336,2.76094116,5.98841701,3.03465966e-05,0.855053698
24,-15.2163765,-8.02157615,4.33795336,2.1418688,4.64566348,3.74833141e-05,0.855053698
25,-15.2163765,-6.11983775,4.33795336,1.66160801,3.60398902,4.22686408e-05,0.855053698
26,-15.2163765,-4.64451687,4.33795336,1.28903375,2.79588414,4.42556309e-05,0.855053698
27,-15.2163765,-3.5,4.33795336,1,2.16897668,4.48191527e-05,0.855053698
28,-15.2163765,-2.5,4.33795336,1,2.16897668,4.53561719e-05,0.855053698
29,-15.2163765,-1.5,4.33795336,1,2.16897668,4.6294028e-05,0.855053698
30,-15.2163765,-0.5,4.33795336,1,2.16897668,4.78297469e-05,0.855053698
31,-11.3489969,-17.706199,3.39680591,4.58760194,7.79159669,1.66368043e-05,0.855053698
32,-11.3489969,-13.6329249,3.39680591,3.55894634,6.04452498,2.82039945e-05,0.855053698
33,-11.3489969,-10.4729811,3.39680591,2.76094116,4.68919063,4.80210799e-05,0.855053698
34,-11.3489969,-8.02157615,3.39680591,2.1418688,3.63775629,6.38404839e-05,0.855053698
35,-11.3489969,-6.11983775,3.39680591,1.66160801,2.82207995,6.98118204e-05,0.855053698
36,-11.3489969,-4.64451687,3.39680591,1.28903375,2.18929873,6.96842369e-05,0.855053698
37,-11.3489969,-3.5,3.39680591,1,1.69840295,6.54927883e-05,0.855053698
38,-11.3489969,-2.5,3.39680591,1,1.69840295,5.73293393e-05,0.855053698
39,-11.3489969,-1.5,3.39680591,1,1.69840295,4.71657406e-05,0.855053698
40,-11.3489969,-0.5,3.39680591,1,1.69840295,3.9889628e-05,0.855053698
41,-8.32067065,-17.706199,2.65984657,4.58760194,6.10115865,4.8554207e-05,0.855053698
42,-8.32067065,-13.6329249,2.65984657,3.55894634,4.73312561,4.83174154e-05,0.855053698
43,-8.32067065,-10.4729811,2.65984657,2.76094116,3.67183995,6.36680111e-05,0.855053698
44,-8.32067065,-8.02157615,2.65984657,2.1418688,2.84852119,0.000102647176,0.855053698
45,-8.32067065,-6.11983775,2.65984657,1.66160801,2.20981118,0.000123977313,0.855053698
46,-8.32067065,-4.64451687,2.65984657,1.28903375,1.714316,0.000121455503,0.855053698
47,-8.32067065,-3.5,2.65984657,1,1.32992329,0.000106779503,0.855053698
48,-8.32067065,-2.5,2.65984657,1,1.32992329,8.66735929e-05,0.855053698
49,-8.32067065,-1.5,2.65984657,1,1.32992329,5.74919792e-05,0.855053698
50,-8.32067065,-0.5,2.65984657,1,1.32992329,2.30665197e-05,0.855053698
51,-5.94935967,-17.706199,2.0827754,4.58760194,4.77747223,6.88952327e-05,0.855053698
52,-5.94935967,-13.6329249,2.0827754,3.55894634,3.70624294,0.000120589045,0.855053698
53,-5.94935967,-10.4729811,2.0827754,2.76094116,2.87521017,0.000181614602,0.855053698
54,-5.94935967,-8.02157615,2.0827754,2.1418688,2.23051582,0.000212136108,0.855053698
55,-5.94935967,-6.11983775,2.0827754,1.66160801,1.73037814,0.000242916563,0.855053698
56,-5.94935967,-4.64451687,2.0827754,1.28903375,1.34238389,0.000264711646,0.855053698
57,-5.94935967,-3.5,2.0827754,1,1.0413877,0.000238019362,0.855053698
58,-5.94935967,-2.5,2.0827754,1,1.0413877,0.00016936018,0.855053698
59,-5.94935967,-1.5,2.0827754,1,1.0413877,8.78891611e-05,0.855053698
60,-5.94935967,-0.5,2.0827754,1,1.0413877,3.77928848e-05,0.855053698
61,-4.09252017,-17.706199,1.63090361,4.58760194,3.74096828,8.00277829e-05,0.855053698
62,-4.09252017,-13.6329249,1.63090361,3.55894634,2.90214921,0.000176887433,0.855053698
63,-4.09252017,-10.4729811,1.63090361,2.76094116,2.25141445,0.000311114934,0.855053698
64,-4.09252017,-8.02157615,1.63090361,2.1418688,1.74659077,0.000464700665,0.855053698
65,-4.09252017,-6.11983775,1.63090361,1.66160801,1.35496124,0.00055820537,0.855053698
66,-4.09252017,-4.64451687,1.63090361,1.28903375,1.05114489,0.000597493576,0.855053698
67,-4.09252017,-3.5,1.63090361,1,0.815451803,0.000654694034,0.855053698
68,-4.09252017,-2.5,1.63090361,1,0.815451803,0.000593381809,0.855053698
69,-4.09252017,-1.5,1.63090361,1,0.815451803,0.00031380371,0.855053698
70,-4.09252017,-0.5,1.63090361,1,0.815451803,0.000290725252,0.855053698
71,-2.63853418,-17.706199,1.27706836,4.58760194,2.92934065,8.13033197e-05,0.855053698
72,-2.63853418,-13.6329249,1.27706836,3.55894634,2.27250889,0.000219807925,0.855053698
73,-2.63853418,-10.4729811,1.27706836,2.76094116,1.76295531,0.000410372164,0.855053698
74,-2.63853418,-8.02157615,1.27706836,2.1418688,1.36765644,0.000660291984,0.855053698
75,-2.63853418,-6.11983775,1.27706836,1.66160801,1.06099351,0.000970602924,0.855053698
76,-2.63853418,-4.64451687,1.27706836,1.28903375,0.82309211,0.00120109745,0.855053698
77,-2.63853418,-3.5,1.27706836,1,0.638534182,0.00136165581,0.855053698
78,-2.63853418,-2.5,1.27706836,1,0.638534182,0.00163328296,0.855053698
79,-2.63853418,-1.5,1.27706836,1,0.638534182,0.00143574655,0.855053698
80,-2.63853418,-0.5,1.27706836,1,0.638534182,0.000588456128,0.855053698
81,-1.5,-17.706199,1,4.58760194,2.29380097,8.11988836e-05,0.855053698
82,-1.5,-13.6329249,1,3.55894634,1.77947317,0.000247033372,0.855053698
83,-1.5,-10.4729811,1,2.76094116,1.38047058,0.000461139303,0.855053698
84,-1.5,-8.02157615,1,2.1418688,1.0709344,0.000791778506,0.855053698
85,-1.5,-6.11983775,1,1.66160801,0.830804003,0.00122496451,0.855053698
86,-1.5,-4.64451687,1,1.28903375,0.644516874,0.00182691898,0.855053698
87,-1.5,-3.5,1,1,0.5,0.00248999772,0.855053698
88,-1.5,-2.5,1,1,0.5,0.0033636897,0.855053698
89,-1.5,-1.5,1,1,0.5,0.00443412557,0.855053698
90,-1.5,-0.5,1,1,0.5,0.00582382433,0.855053698
91,-0.5,-17.706199,1,4.58760194,2.29380097,8.12603296e-05,0.855053698
92,-0.5,-13.6329249,1,3.55894634,1.77947317,0.00025681524,0.855053698
93,-0.5,-10.4729811,1,2.76094116,1.38047058,0.000487041776,0.855053698
94,-0.5,-8.02157615,1,2.1418688,1.0709344,0.000827823571,0.855053698
95,-0.5,-6.11983775,1,1.66160801,0.830804003,0.00133645188,0.855053698
96,-0.5,-4.64451687,1,1.28903375,0.644516874,0.00195971193,0.855053698
97,-0.5,-3.5,1,1,0.5,0.00261321083,0.855053698
98,-0.5,-2.5,1,1,0.5,0.00327382647,0.855053698
99,-0.5,-1.5,1,1,0.5,0.00307803865,0.855053698
100,-0.5,-0.5,1,1,0.5,0.00125138951,0.855053698
101,0.5,-17.706199,1,4.58760194,2.29380097,8.12622524e-05,0.855053698
102,0.5,-13.6329249,1,3.55894634,1.77947317,0.000256815105,0.855053698
103,0.5,-10.4729811,1,2.76094116,1.38047058,0.000487032723,0.855053698
104,0.5,-8.02157615,1,2.1418688,1.0709344,0.000828278379,0.855053698
105,0.5,-6.11983775,1,1.66160801,0.830804003,0.00133572895,0.855053698
106,0.5,-4.64451687,1,1.28903375,0.644516874,0.00195993813,0.855053698
107,0.5,-3.5,1,1,0.5,0.00261198708,0.855053698
108,0.5,-2.5,1,1,0.5,0.00327353372,0.855053698
109,0.5,-1.5,1,1,0.5,0.00307805677,0.855053698
110,0.5,-0.5,1,1,0.5,0.00125035612,0.855053698
111,1.5,-17.706199,1,4.58760194,2.29380097,8.11975297e-05,0.855053698
112,1.5,-13.6329249,1,3.55894634,1.77947317,0.000247043528,0.855053698
113,1.5,-10.4729811,1,2.76094116,1.38047058,0.000461109149,0.855053698
114,1.5,-8.02157615,1,2.1418688,1.0709344,0.000791924965,0.855053698
115,1.5,-6.11983775,1,1.66160801,0.830804003,0.00122448647,0.855053698
116,1.5,-4.64451687,1,1.28903375,0.644516874,0.00182684872,0.855053698
117,1.5,-3.5,1,1,0.5,0.00249040307,0.855053698
118,1.5,-2.5,1,1,0.5,0.00336389271,0.855053698
119,1.5,-1.5,1,1,0.5,0.00443419904,0.855053698
120,1.5,-0.5,1,1,0.5,0.00582404709,0.855053698
121,2.63853418,-17.706199,1.27706836,4.58760194,2.92934065,8.13050092e-05,0.855053698
122,2.63853418,-13.6329249,1.27706836,3.55894634,2.27250889,0.000219810089,0.855053698
123,2.63853418,-10.4729811,1.27706836,2.76094116,1.76295531,0.0004103755,0.855053698
124,2.63853418,-8.02157615,1.27706836,2.1418688,1.36765644,0.000660229209,0.855053698
125,2.63853418,-6.11983775,1.27706836,1.66160801,1.06099351,0.000970059508,0.855053698
126,2.63853418,-4.64451687,1.27706836,1.28903375,0.82309211,0.00120217577,0.855053698
127,2.63853418,-3.5,1.27706836,1,0.638534182,0.00136175604,0.855053698
128,2.63853418,-2.5,1.27706836,1,0.638534182,0.00163347967,0.855053698
129,2.63853418,-1.5,1.27706836,1,0.638534182,0.00143621478,0.855053698
130,2.63853418,-0.5,1.27706836,1,0.638534182,0.000587571817,0.855053698
131,4.09252017,-17.706199,1.63090361,4.58760194,3.74096828,8.00299347e-05,0.855053698
132,4.09252017,-13.6329249,1.63090361,3.55894634,2.90214921,0.000176891147,0.855053698
133,4.09252017,-10.4729811,1.63090361,2.76094116,2.25141445,0.00031112111,0.855053698
134,4.09252017,-8.02157615,1.63090361,2.1418688,1.74659077,0.000464717211,0.855053698
135,4.09252017,-6.11983775,1.63090361,1.66160801,1.35496124,0.000558536255,0.855053698
136,4.09252017,-4.64451687,1.63090361,1.28903375,1.05114489,0.00059735758,0.855053698
137,4.09252017,-3.5,1.63090361,1,0.815451803,0.00065408132,0.855053698
138,4.09252017,-2.5,1.63090361,1,0.815451803,0.000593330926,0.855053698
139,4.09252017,-1.5,1.63090361,1,0.815451803,0.000313993273,0.855053698
140,4.09252017,-0.5,1.63090361,1,0.815451803,0.000290828129,0.855053698
141,5.94935967,-17.706199,2.0827754,4.58760194,4.77747223,6.88974086e-05,0.855053698
142,5.94935967,-13.6329249,2.0827754,3.55894634,3.70624294,0.000120592504,0.855053698
143,5.94935967,-10.4729811,2.0827754,2.76094116,2.87521017,0.000181625182,0.855053698
144,5.94935967,-8.02157615,2.0827754,2.1418688,2.23051582,0.000212150686,0.855053698
145,5.94935967,-6.11983775,2.0827754,1.66160801,1.73037814,0.000242929544,0.855053698
146,5.94935967,-4.64451687,2.0827754,1.28903375,1.34238389,0.000264702968,0.855053698
147,5.94935967,-3.5,2.0827754,1,1.0413877,0.000238004944,0.855053698
148,5.94935967,-2.5,2.0827754,1,1.0413877,0.000169350171,0.855053698
149,5.94935967,-1.5,2.0827754,1,1.0413877,8.78880332e-05,0.855053698
150,5.94935967,-0.5,2.0827754,1,1.0413877,3.77989621e-05,0.855053698
151,8.32067065,-17.706199,2.65984657,4.58760194,6.10115865,4.85540522e-05,0.855053698
152,8.32067065,-13.6329249,2.65984657,3.55894634,4.73312561,4.83156413e-05,0.855053698
153,8.32067065,-10.4729811,2.65984657,2.76094116,3.67183995,6.3671518e-05,0.855053698
154,8.32067065,-8.02157615,2.65984657,2.1418688,2.84852119,0.00010265267,0.855053698
155,8.32067065,-6.11983775,2.65984657,1.66160801,2.20981118,0.00012397787,0.855053698
156,8.32067065,-4.64451687,2.65984657,1.28903375,1.714316,0.000121452589,0.855053698
157,8.32067065,-3.5,2.65984657,1,1.32992329,0.00010677592,0.855053698
158,8.32067065,-2.5,2.65984657,1,1.32992329,8.66673975e-05,0.855053698
159,8.32067065,-1.5,2.65984657,1,1.32992329,5.74851262e-05,0.855053698
160,8.32067065,-0.5,2.65984657,1,1.32992329,2.30618572e-05,0.855053698
161,11.3489969,-17.706199,3.39680591,4.58760194,7.79159669,1.66371394e-05,0.855053698
162,11.3489969,-13.6329249,3.39680591,3.55894634,6.04452498,2.82048989e-05,0.855053698
163,11.3489969,-10.4729811,3.39680591,2.76094116,4.68919063,4.80235662e-05,0.855053698
164,11.3489969,-8.02157615,3.39680591,2.1418688,3.63775629,6.38438708e-05,0.855053698
165,11.3489969,-6.11983775,3.39680591,1.66160801,2.82207995,6.98148783e-05,0.855053698
166,11.3489969,-4.64451687,3.39680591,1.28903375,2.18929873,6.96857279e-05,0.855053698
167,11.3489969,-3.5,3.39680591,1,1.69840295,6.549141e-05,0.855053698
168,11.3489969,-2.5,3.39680591,1,1.69840295,5.73265667e-05,0.855053698
169,11.3489969,-1.5,3.39680591,1,1.69840295,4.71622616e-05,0.855053698
170,11.3489969,-0.5,3.39680591,1,1.69840295,3.98842084e-05,0.855053698
171,15.2163765,-17.706199,4.33795336,4.58760194,9.95040164,1.28240229e-05,0.855053698
172,15.2163765,-13.6329249,4.33795336,3.55894634,7.71927162,2.10511779e-05,0.855053698
173,15.2163765,-10.4729811,4.33795336,2.76094116,5.98841701,3.03476937e-05,0.855053698
174,15.2163765,-8.02157615,4.33795336,2.1418688,4.64566348,3.7485028e-05,0.855053698
175,15.2163765,-6.11983775,4.33795336,1.66160801,3.60398902,4.22706004e-05,0.855053698
176,15.2163765,-4.64451687,4.33795336,1.28903375,2.79588414,4.42573262e-05,0.855053698
177,15.2163765,-3.5,4.33795336,1,2.16897668,4.48207828e-05,0.855053698
178,15.2163765,-2.5,4.33795336,1,2.16897668,4.53570501e-05,0.855053698
179,15.2163765,-1.5,4.33795336,1,2.16897668,4.62938642e-05,0.855053698
180,15.2163765,-0.5,4.33795336,1,2.16897668,4.78289545e-05,0.855053698
181,20.1552847,-17.706199,5.539863,4.58760194,12.7073431,5.38458117e-06,0.855053698
182,20.1552847,-13.6329249,5.539863,3.55894634,9.85803758,1.10488905e-05,0.855053698
183,20.1552847,-10.4729811,5.539863,2.76094116,7.64761791,1.77874068e-05,0.855053698
184,20.1552847,-8.02157615,5.539863,2.1418688,5.93282985,2.35334974e-05,0.855053698
185,20.1552847,-6.11983775,5.539863,1.66160801,4.60254036,2.79177595e-05,0.855053698
186,20.1552847,-4.64451687,5.539863,1.28903375,3.57053519,3.15904499e-05,0.855053698
187,20.1552847,-3.5,5.539863,1,2.7699315,3.47643328e-05,0.855053698
188,20.1552847,-2.5,5.539863,1,2.7699315,3.79105397e-05,0.855053698
189,20.1552847,-1.5,5.539863,1,2.7699315,4.19331463e-05,0.855053698
190,20.1552847,-0.5,5.539863,1,2.7699315,4.84714917e-05,0.855053698
191,26.4626081,-17.706199,7.07478378,4.58760194,16.2281459,1.24945826e-06,0.855053698
192,26.4626081,-13.6329249,7.07478378,3.55894634,12.5893879,5.86292388e-06,0.855053698
193,26.4626081,-10.4729811,7.07478378,2.76094116,9.76653089,1.16151146e-05,0.855053698
194,26.4626081,-8.02157615,7.07478378,2.1418688,7.57662931,1.69767042e-05,0.855053698
195,26.4626081,-6.11983775,7.07478378,1.66160801,5.87775869,2.16764921e-05,0.855053698
196,26.4626081,-4.64451687,7.07478378,1.28903375,4.55981753,2.5719191e-05,0.855053698
197,26.4626081,-3.5,7.07478378,1,3.53739189,2.92580012e-05,0.855053698
198,26.4626081,-2.5,7.07478378,1,3.53739189,3.28474894e-05,0.855053698
199,26.4626081,-1.5,7.07478378,1,3.53739189,3.72794333e-05,0.855053698
200,26.4626081,-0.5,7.07478378,1,3.53739189,4.35606586e-05,0.855053698
