# ADR90 WP-A2 tau=0 band, build afb95c40c9e3da1cc97d6aabe8168644c53d0e82 (expected afb95c40c9e3da1cc97d6aabe8168644c53d0e82), leg h1.0_e0.6944
s_m,s_over_B,q_foot_kPa,q_base_kPa,ds_mm,relaxed,wall_s,implex_err_avg,implex_refusals
2e-05,1e-05,2.73884294,-0.563280637,0.02,0,0.0680551529,0.00226130872,0
4e-05,2e-05,2.23070501,-2.16056071,0.02,0,0.164703608,0.000430746085,0
6e-05,3e-05,2.59500075,-2.65246655,0.02,0,0.263387203,0.000224179238,0
8e-05,4e-05,2.97768936,-3.00798077,0.02,0,0.358245611,0.000154133543,0
0.0001,5e-05,3.34883649,-3.36159697,0.02,0,0.440818548,9.26460994e-05,0
0.00012,6e-05,3.73757147,-3.73888508,0.04,0,0.532722712,7.2683314e-05,0
0.00016,8e-05,4.52069692,-4.52528639,0.04,0,0.653166294,0.000122380239,0
0.0002,0.0001,5.29987018,-5.31796094,0.04,0,0.767025471,0.000132585133,0
0.00024,0.00012,6.06593397,-6.08599026,0.04,0,0.90704608,0.000117258672,0
0.00028,0.00014,6.81866112,-6.83283126,0.04,0,1.07737541,8.82562031e-05,0
0.00032,0.00016,7.55392357,-7.55644309,0.04,0,1.26929784,6.79547692e-05,0
0.00036,0.00018,8.25850511,-8.25787319,0.08,0,1.42222571,5.33667667e-05,0
0.00044,0.00022,9.64259267,-9.63708318,0.08,0,1.61321187,9.47421011e-05,8
0.00052,0.00026,10.9719996,-10.9794844,0.08,0,1.79984522,0.000108955493,16
0.0006,0.0003,12.2738929,-12.276588,0.08,0,1.9949522,0.000103668125,20
0.00068,0.00034,13.5396263,-13.5515288,0.08,0,2.17393184,9.48270367e-05,24
0.00076,0.00038,14.7852969,-14.7998621,0.08,0,2.34619594,9.36703051e-05,28
0.00084,0.00042,16.0103887,-16.018875,0.16,0,2.51651311,8.75143327e-05,32
0.00092,0.00046,17.2210598,-17.225194,0.08,0,2.99944091,7.7828182e-05,96
0.001,0.0005,18.4349293,-18.4231295,0.08,0,3.16176653,7.39076774e-05,100
0.00108,0.00054,19.6255649,-19.6244565,0.08,0,3.33676267,6.22271952e-05,100
0.00116,0.00058,20.8407382,-20.8146927,0.08,0,3.50968313,6.49785184e-05,100
0.00124,0.00062,22.0376719,-22.0131912,0.08,0,3.68397164,6.30336298e-05,100
0.00132,0.00066,23.21214,-23.2260744,0.16,0,3.8666501,5.47821539e-05,100
0.0014,0.0007,24.3934663,-24.4382999,0.08,0,4.31921983,5.43226011e-05,160
0.00148,0.00074,25.5629768,-25.565175,0.08,0,4.49832892,5.25118344e-05,160
0.00156,0.00078,26.680387,-26.5312663,0.08,0,4.66467285,4.62657466e-05,160
0.00164,0.00082,27.8079292,-27.7720049,0.08,0,4.84100246,3.90575841e-05,160
0.00172,0.00086,28.9457054,-28.9189997,0.08,0,5.02365375,3.48576053e-05,160
0.0018,0.0009,30.0833767,-30.0548973,0.16,0,5.19236684,3.08552045e-05,160
0.00188,0.00094,31.2138995,-31.1804247,0.08,0,5.64020896,3.09887105e-05,220
0.00196,0.00098,32.3410558,-32.3052567,0.08,0,5.81602335,3.01268988e-05,220
0.00204,0.00102,33.4525813,-33.4297091,0.08,0,5.99337125,2.91227879e-05,220
0.00212,0.00106,34.5631998,-34.5442485,0.08,0,6.17677951,2.83282399e-05,220
0.0022,0.0011,35.6706041,-35.651129,0.08,0,6.35106754,2.69518749e-05,220
0.00228,0.00114,36.7711648,-36.7502414,0.16,0,6.53374743,2.85342822e-05,220
0.00236,0.00118,37.8702191,-37.8525095,0.08,0,6.9744401,2.6507868e-05,292
0.00244,0.00122,38.9637099,-38.9467525,0.08,0,7.16174698,2.57708853e-05,292
0.00252,0.00126,40.055431,-40.029899,0.08,0,7.3480525,2.46797443e-05,292
0.0026,0.0013,41.1437034,-41.1249644,0.08,0,7.54807353,2.53634666e-05,292
0.00268,0.00134,42.2308865,-42.2163758,0.08,0,7.73046517,2.42936266e-05,292
0.00276,0.00138,43.3143633,-43.3060528,0.16,0,7.92609715,2.22415709e-05,292
0.00284,0.00142,44.3959394,-44.3900281,0.08,0,8.36019564,2.34360595e-05,376
0.00292,0.00146,45.4716126,-45.469555,0.08,0,8.5449717,2.3044275e-05,376
0.003,0.0015,46.5431307,-46.5432433,0.08,0,8.72011161,2.38972657e-05,376
0.00308,0.00154,47.6163781,-47.61401,0.08,0,8.90747046,2.25742018e-05,376
0.00316,0.00158,48.6853165,-48.6797371,0.08,0,9.07746029,2.40600148e-05,376
0.00324,0.00162,49.7483883,-49.7460143,0.16,0,9.24798584,2.14862749e-05,376
0.00332,0.00166,50.8118301,-50.8080352,0.08,0,9.67229533,2.09515028e-05,460
0.0034,0.0017,51.8730096,-51.8652161,0.08,0,9.8254478,2.14394325e-05,460
0.00348,0.00174,52.9297915,-52.9247551,0.08,0,10.0074978,2.1252996e-05,460
0.00356,0.00178,53.9862632,-53.9801832,0.08,0,10.1718752,2.21649134e-05,460
0.00364,0.00182,55.0395002,-55.0339283,0.08,0,10.3435352,2.07413522e-05,460
0.00372,0.00186,56.091693,-56.087792,0.16,0,10.5195715,1.80433574e-05,460
0.0038,0.0019,57.1406159,-57.138952,0.08,0,10.964699,1.89008195e-05,544
0.00388,0.00194,58.1863466,-58.1859594,0.08,0,11.1568029,1.88262661e-05,544
0.00396,0.00198,59.2308613,-59.230197,0.08,0,11.3497007,1.96862155e-05,544
0.00404,0.00202,60.2756973,-60.2743734,0.08,0,11.5150931,1.83614036e-05,544
0.00412,0.00206,61.3195087,-61.3171302,0.08,0,11.7175817,1.79374525e-05,544
0.0042,0.0021,62.358958,-62.3574434,0.16,0,11.9142458,2.09339676e-05,544
0.00428,0.00214,63.4039645,-63.3935269,0.08,0,12.3183386,2.02279649e-05,628
0.00436,0.00218,64.4416669,-64.4303455,0.08,0,12.4817955,1.97022332e-05,628
0.00444,0.00222,65.4794974,-65.4655045,0.08,0,12.647109,1.74959347e-05,628
0.00452,0.00226,66.5134078,-66.4960874,0.08,0,12.8137999,2.05724634e-05,628
0.0046,0.0023,67.5369265,-67.5287315,0.08,0,12.9917037,1.81355549e-05,628
0.00468,0.00234,68.5660111,-68.5582676,0.16,0,13.1595476,1.87834551e-05,628
0.00476,0.00238,69.5887487,-69.5847725,0.08,0,13.5690641,1.88074402e-05,712
0.00484,0.00242,70.6131827,-70.6098298,0.08,0,13.7313259,1.9058028e-05,712
0.00492,0.00246,71.6430934,-71.6345358,0.08,0,13.9074051,1.80361066e-05,712
0.005,0.0025,72.6638923,-72.657936,0.08,0,14.065378,1.99221452e-05,712
0.00508,0.00254,73.6833773,-73.6794622,0.08,0,14.2295473,1.95369921e-05,712
0.00516,0.00258,74.7063685,-74.6999237,0.16,0,14.3963742,2.03979004e-05,712
0.00524,0.00262,75.7248809,-75.7203658,0.08,0,14.8219018,1.93920203e-05,796
0.00532,0.00266,76.746895,-76.7398816,0.08,0,14.9966018,1.84239214e-05,796
0.0054,0.0027,77.7686336,-77.7591786,0.08,0,15.1798816,1.85042106e-05,796
0.00548,0.00274,78.7818444,-78.7773511,0.08,0,15.3508024,1.91543934e-05,796
0.00556,0.00278,79.7951564,-79.7931949,0.08,0,15.5263383,1.75811491e-05,796
0.00564,0.00282,80.8074432,-80.8075389,0.16,0,15.717768,1.68649202e-05,796
0.00572,0.00286,81.8204974,-81.8179578,0.08,0,16.1322231,1.78672975e-05,880
0.0058,0.0029,82.8343738,-82.8304775,0.08,0,16.2978776,1.58663202e-05,880
0.00588,0.00294,83.8441216,-83.8390368,0.08,0,16.4611032,1.84064192e-05,880
0.00596,0.00298,84.8520855,-84.8481207,0.08,0,16.6235192,1.79961107e-05,880
0.00604,0.00302,85.8539171,-85.8524371,0.08,0,16.8040266,1.88777049e-05,880
0.00612,0.00306,86.8624493,-86.8598142,0.16,0,16.9878922,1.67891016e-05,880
0.0062,0.0031,87.8682438,-87.8636585,0.08,0,17.4093993,1.83943727e-05,964
0.00628,0.00314,88.8766449,-88.8701773,0.08,0,17.5933566,1.75442879e-05,964
0.00636,0.00318,89.8817922,-89.8755279,0.08,0,17.777782,1.75769453e-05,964
0.00644,0.00322,90.8845492,-90.8791842,0.08,0,17.9611397,1.70349157e-05,964
0.00652,0.00326,91.8857271,-91.8809486,0.08,0,18.1237242,1.74518442e-05,964
0.0066,0.0033,92.8872232,-92.8832858,0.16,0,18.2911999,1.53647886e-05,964
0.00668,0.00334,93.8879823,-93.8837211,0.08,0,18.7089865,1.62832998e-05,1048
0.00676,0.00338,94.8870718,-94.8821408,0.08,0,18.8933871,1.5593541e-05,1048
0.00684,0.00342,95.8942206,-95.8768088,0.08,0,19.0561988,1.64975705e-05,1048
0.00692,0.00346,96.8862386,-96.8732444,0.08,0,19.2225847,1.72888913e-05,1048
0.007,0.0035,97.8809535,-97.8682687,0.08,0,19.3926625,1.55176136e-05,1048
0.00708,0.00354,98.8801577,-98.8618965,0.16,0,19.5679493,1.6820621e-05,1048
0.00716,0.00358,99.8689502,-99.8565063,0.08,0,19.9670255,1.65534579e-05,1132
0.00724,0.00362,100.863483,-100.8523,0.08,0,20.1399937,1.62981033e-05,1132
0.00732,0.00366,101.855756,-101.84424,0.08,0,20.3098333,1.86639319e-05,1132
0.0074,0.0037,102.845206,-102.837512,0.08,0,20.4751022,1.59498503e-05,1132
0.00748,0.00374,103.837974,-103.829108,0.08,0,20.6390641,1.58332579e-05,1132
0.00756,0.00378,104.830139,-104.821148,0.16,0,20.808598,1.52778839e-05,1132
0.00764,0.00382,105.816175,-105.809848,0.08,0,21.1964962,1.67884146e-05,1216
0.00772,0.00386,106.804847,-106.796149,0.08,0,21.3663318,1.78209286e-05,1216
0.0078,0.0039,107.792094,-107.785074,0.08,0,21.5435209,1.66413183e-05,1216
0.00788,0.00394,108.778733,-108.772133,0.08,0,21.7091825,1.72710117e-05,1216
0.00796,0.00398,109.765281,-109.758933,0.08,0,21.8722081,1.84270248e-05,1216
0.00804,0.00402,110.753134,-110.747233,0.16,0,22.0243986,1.61306643e-05,1216
0.00812,0.00406,111.735548,-111.73249,0.08,0,22.4029388,1.68293289e-05,1300
0.0082,0.0041,112.722726,-112.719928,0.08,0,22.559104,1.39922354e-05,1300
0.00828,0.00414,113.703496,-113.698135,0.08,0,22.7349102,1.97033056e-05,1300
0.00836,0.00418,114.686639,-114.680328,0.08,0,22.9064128,1.67896905e-05,1300
0.00844,0.00422,115.667083,-115.661154,0.08,0,23.0718112,1.68880194e-05,1300
0.00852,0.00426,116.650717,-116.644339,0.16,0,23.2293873,1.63122789e-05,1300
0.0086,0.0043,117.630533,-117.626036,0.08,0,23.6123114,1.61661528e-05,1384
0.00868,0.00434,118.612112,-118.608716,0.08,0,23.7938662,1.47852439e-05,1384
0.00876,0.00438,119.592134,-119.587382,0.08,0,23.9621558,1.58683997e-05,1384
0.00884,0.00442,120.571571,-120.566836,0.08,0,24.1427233,1.57295664e-05,1384
0.00892,0.00446,121.546514,-121.542912,0.08,0,24.3123262,1.7210932e-05,1384
0.009,0.0045,122.525299,-122.521483,0.16,0,24.4694717,1.61595649e-05,1384
0.00908,0.00454,123.507568,-123.49905,0.08,0,24.856477,1.52722427e-05,1468
0.00916,0.00458,124.482647,-124.475924,0.08,0,25.0388324,1.73079963e-05,1468
0.00924,0.00462,125.458832,-125.451404,0.08,0,25.2188036,1.70975762e-05,1468
0.00932,0.00466,126.435394,-126.428041,0.08,0,25.3971858,1.58025396e-05,1468
0.0094,0.0047,127.412338,-127.405355,0.08,0,25.5652897,1.62463897e-05,1468
0.00948,0.00474,128.388846,-128.383929,0.16,0,25.7335224,1.5051875e-05,1468
0.00956,0.00478,129.36748,-129.361089,0.08,0,26.1050978,1.51819913e-05,1552
0.00964,0.00482,130.344748,-130.339669,0.08,0,26.2625408,1.47244032e-05,1552
0.00972,0.00486,131.317569,-131.31358,0.08,0,26.4252367,1.63161338e-05,1552
0.0098,0.0049,132.292726,-132.289272,0.08,0,26.6187539,1.34160816e-05,1552
0.00988,0.00494,133.260838,-133.259269,0.08,0,26.8178051,1.58714368e-05,1552
0.00996,0.00498,134.231491,-134.229813,0.16,0,26.9941239,1.51914551e-05,1552
0.01004,0.00502,135.200396,-135.198984,0.08,0,27.3858674,1.41756015e-05,1624
0.01012,0.00506,136.172004,-136.171473,0.08,0,27.5939937,1.46435086e-05,1624
0.0102,0.0051,137.14084,-137.141196,0.08,0,27.7835336,1.35103424e-05,1624
0.01028,0.00514,138.111682,-138.111906,0.08,0,27.9607086,1.38001248e-05,1624
0.01036,0.00518,139.080072,-139.07893,0.08,0,28.1301956,1.47013002e-05,1624
0.01044,0.00522,140.049138,-140.046692,0.16,0,28.3062644,1.39447368e-05,1624
0.01052,0.00526,141.014864,-141.012084,0.08,0,28.6845136,1.48684615e-05,1708
0.0106,0.0053,141.981192,-141.980144,0.08,0,28.8640833,1.41959547e-05,1708
0.01068,0.00534,142.949217,-142.945224,0.08,0,29.0325127,1.59839946e-05,1708
0.01076,0.00538,143.917877,-143.915001,0.08,0,29.1961277,1.42973164e-05,1708
0.01084,0.00542,144.889674,-144.881067,0.08,0,29.3608291,1.57055177e-05,1708
0.01092,0.00546,145.851532,-145.848375,0.16,0,29.5235093,1.57295629e-05,1708
0.011,0.0055,146.819438,-146.814954,0.08,0,29.9101579,1.46730979e-05,1792
0.01108,0.00554,147.78566,-147.781594,0.08,0,30.0820851,1.49278096e-05,1792
0.01116,0.00558,148.759423,-148.742839,0.08,0,30.257236,1.69642388e-05,1792
0.01124,0.00562,149.722205,-149.711791,0.08,0,30.4284389,1.31863337e-05,1792
0.01132,0.00566,150.690567,-150.674973,0.08,0,30.6076682,1.51569201e-05,1792
0.0114,0.0057,151.651085,-151.638982,0.16,0,30.7768042,1.44656405e-05,1792
0.01148,0.00574,152.612144,-152.602763,0.08,0,31.1846838,1.45843006e-05,1876
0.01156,0.00578,153.580846,-153.567527,0.08,0,31.3479245,1.21788949e-05,1876
0.01164,0.00582,154.536795,-154.531318,0.08,0,31.514286,1.40029214e-05,1876
0.01172,0.00586,155.502053,-155.492595,0.08,0,31.6791935,1.3675874e-05,1876
0.0118,0.0059,156.46733,-156.450578,0.08,0,31.8341527,1.54537472e-05,1876
0.01188,0.00594,157.425131,-157.412425,0.16,0,32.0001945,1.38189005e-05,1876
0.01196,0.00598,158.384639,-158.372201,0.08,0,32.3575752,1.59503225e-05,1960
0.01204,0.00602,159.340452,-159.333019,0.08,0,32.517766,1.56399062e-05,1960
0.01212,0.00606,160.299723,-160.291455,0.08,0,32.6860304,1.73402745e-05,1960
0.0122,0.0061,161.255164,-161.250233,0.08,0,32.8376758,1.59544662e-05,1960
0.01228,0.00614,162.214683,-162.209997,0.08,0,32.999088,1.51418803e-05,1960
0.01236,0.00618,163.173703,-163.169391,0.16,0,33.1539958,1.46485028e-05,1960
0.01244,0.00622,164.132962,-164.129008,0.08,0,33.5435312,1.44276346e-05,2056
0.01252,0.00626,165.090222,-165.088106,0.08,0,33.7116785,1.38252738e-05,2056
0.0126,0.0063,166.048344,-166.045335,0.08,0,33.8756068,1.37201212e-05,2056
0.01268,0.00634,167.002954,-166.999656,0.08,0,34.0389519,1.67029629e-05,2056
0.01276,0.00638,167.959283,-167.956938,0.08,0,34.2062478,1.41204596e-05,2056
0.01284,0.00642,168.913592,-168.913355,0.16,0,34.3685188,1.415594e-05,2056
0.01292,0.00646,169.869792,-169.868593,0.08,0,34.7456191,1.52775405e-05,2152
0.013,0.0065,170.827531,-170.82453,0.08,0,34.9077058,1.37534788e-05,2152
0.01308,0.00654,171.783411,-171.781178,0.08,0,35.0731096,1.32391824e-05,2152
0.01316,0.00658,172.739222,-172.736057,0.08,0,35.2337289,1.44477074e-05,2152
0.01324,0.00662,173.691576,-173.688737,0.08,0,35.4165187,1.48562944e-05,2152
0.01332,0.00666,174.645911,-174.640891,0.16,0,35.5809982,1.62571999e-05,2152
0.0134,0.0067,175.602196,-175.596734,0.08,0,35.9679689,1.36829695e-05,2248
0.01348,0.00674,176.557188,-176.551317,0.08,0,36.148489,1.52771704e-05,2248
0.01356,0.00678,177.511781,-177.506881,0.08,0,36.3206296,1.45552663e-05,2248
0.01364,0.00682,178.465776,-178.461023,0.08,0,36.4839933,1.57458452e-05,2248
0.01372,0.00686,179.418775,-179.414211,0.08,0,36.6615975,1.53472858e-05,2248
0.0138,0.0069,180.370975,-180.366238,0.16,0,36.8471847,1.54030245e-05,2248
0.01388,0.00694,181.322784,-181.319652,0.08,0,37.2105861,1.43103659e-05,2344
0.01396,0.00698,182.277739,-182.274038,0.08,0,37.3631773,1.36211584e-05,2344
0.01404,0.00702,183.231624,-183.229375,0.08,0,37.5207257,1.34103842e-05,2344
0.01412,0.00706,184.185502,-184.183734,0.08,0,37.6780834,1.39240231e-05,2344
0.0142,0.0071,185.136922,-185.135868,0.08,0,37.8447986,1.38882589e-05,2344
0.01428,0.00714,186.090327,-186.089098,0.16,0,38.0100327,1.38684815e-05,2344
0.01436,0.00718,187.041967,-187.040406,0.08,0,38.4163015,1.4804812e-05,2440
0.01444,0.00722,187.993641,-187.992802,0.08,0,38.5759225,1.25651057e-05,2440
0.01452,0.00726,188.946307,-188.945179,0.08,0,38.7382717,1.33759493e-05,2440
0.0146,0.0073,189.898219,-189.896653,0.08,0,38.8909559,1.30950951e-05,2440
0.01468,0.00734,190.851121,-190.848993,0.08,0,39.045188,1.30494277e-05,2440
0.01476,0.00738,191.801875,-191.800374,0.16,0,39.203054,1.31643864e-05,2440
0.01484,0.00742,192.751371,-192.750168,0.08,0,39.5722661,1.30264083e-05,2536
0.01492,0.00746,193.701156,-193.698778,0.08,0,39.7401972,1.29141163e-05,2536
0.015,0.0075,194.655312,-194.644144,0.08,0,39.8966999,1.42259972e-05,2536
0.01508,0.00754,195.594512,-195.590868,0.08,0,40.0512145,1.35220931e-05,2536
0.01516,0.00758,196.547173,-196.536415,0.08,0,40.2126052,1.38516042e-05,2536
0.01524,0.00762,197.490844,-197.484793,0.16,0,40.3768325,1.3367743e-05,2536
0.01532,0.00766,198.442192,-198.43191,0.08,0,40.724025,1.44722342e-05,2632
0.0154,0.0077,199.386391,-199.380986,0.08,0,40.8860705,1.29479559e-05,2632
0.01548,0.00774,200.337939,-200.329401,0.08,0,41.0615673,1.37894627e-05,2632
0.01556,0.00778,201.284828,-201.277671,0.08,0,41.2492747,1.41019481e-05,2632
0.01564,0.00782,202.231645,-202.226735,0.08,0,41.4176908,1.26739214e-05,2632
0.01572,0.00786,203.185354,-203.174276,0.16,0,41.5755315,1.18785328e-05,2632
0.0158,0.0079,204.135069,-204.123632,0.08,0,41.9422784,1.17992925e-05,2728
0.01588,0.00794,205.078746,-205.070455,0.08,0,42.116909,1.19843281e-05,2728
0.01596,0.00798,206.027367,-206.015099,0.08,0,42.2716084,1.31990249e-05,2728
0.01604,0.00802,206.972224,-206.960682,0.08,0,42.4402032,1.36582764e-05,2728
0.01612,0.00806,207.914753,-207.908371,0.08,0,42.6155946,1.26934441e-05,2728
0.0162,0.0081,208.857826,-208.851637,0.16,0,42.7705386,1.43201059e-05,2728
0.01628,0.00814,209.803173,-209.79685,0.08,0,43.1319342,1.3527576e-05,2824
0.01636,0.00818,210.751638,-210.741572,0.08,0,43.291702,1.37151219e-05,2824
0.01644,0.00822,211.691102,-211.687414,0.08,0,43.4451203,1.35476148e-05,2824
0.01652,0.00826,212.63368,-212.629694,0.08,0,43.6077616,1.56868619e-05,2824
0.0166,0.0083,213.579454,-213.573813,0.08,0,43.7696948,1.26973153e-05,2824
0.01668,0.00834,214.523202,-214.514344,0.16,0,43.9262018,1.597443e-05,2824
0.01676,0.00838,215.471054,-215.459349,0.08,0,44.2953687,1.2805624e-05,2920
0.01684,0.00842,216.41157,-216.400665,0.08,0,44.4612317,1.57868071e-05,2920
0.01692,0.00846,217.355032,-217.347592,0.08,0,44.6191556,1.32359105e-05,2920
0.017,0.0085,218.294744,-218.291978,0.08,0,44.7805381,1.50312102e-05,2920
0.01708,0.00854,219.241643,-219.239032,0.08,0,44.9539077,1.24101797e-05,2920
0.01716,0.00858,220.185899,-220.181956,0.16,0,45.1135411,1.44590636e-05,2920
0.01724,0.00862,221.131738,-221.126419,0.08,0,45.5135965,1.36377917e-05,3016
0.01732,0.00866,222.073317,-222.068456,0.08,0,45.6571229,1.47491238e-05,3016
0.0174,0.0087,223.013456,-223.010165,0.08,0,45.808424,1.44998941e-05,3016
0.01748,0.00874,223.957233,-223.952202,0.08,0,45.9832811,1.34398018e-05,3016
0.01756,0.00878,224.902551,-224.893946,0.08,0,46.1755855,1.49077227e-05,3016
0.01764,0.00882,225.841369,-225.837553,0.16,0,46.3572013,1.38186395e-05,3016
0.01772,0.00886,226.789169,-226.779636,0.08,0,46.7510521,1.42881011e-05,3112
0.0178,0.0089,227.732998,-227.72252,0.08,0,46.9329512,1.38054953e-05,3112
0.01788,0.00894,228.668652,-228.664165,0.08,0,47.1125405,1.47644532e-05,3112
0.01796,0.00898,229.610443,-229.605467,0.08,0,47.2797694,1.4619511e-05,3112
0.01804,0.00902,230.551585,-230.54841,0.08,0,47.4556124,1.44241783e-05,3112
0.01812,0.00906,231.495857,-231.492544,0.16,0,47.6195822,1.35870317e-05,3112
0.0182,0.0091,232.437228,-232.432988,0.08,0,48.013061,1.44657715e-05,3208
0.01828,0.00914,233.377329,-233.376051,0.08,0,48.1779239,1.30386e-05,3208
0.01836,0.00918,234.318587,-234.315277,0.08,0,48.3500397,1.4258086e-05,3208
0.01844,0.00922,235.258313,-235.256491,0.08,0,48.5167732,1.28077658e-05,3208
0.01852,0.00926,236.200085,-236.196355,0.08,0,48.6851931,1.37610893e-05,3208
0.0186,0.0093,237.13754,-237.134331,0.16,0,48.8457918,1.66809554e-05,3208
0.01868,0.00934,238.076306,-238.074436,0.08,0,49.2042756,1.49771153e-05,3304
0.01876,0.00938,239.019398,-239.016279,0.08,0,49.371381,1.35383711e-05,3304
0.01884,0.00942,239.957362,-239.954742,0.08,0,49.5365424,1.55732288e-05,3304
0.01892,0.00946,240.896198,-240.892696,0.08,0,49.6917045,1.44656929e-05,3304
0.019,0.0095,241.832671,-241.83072,0.08,0,49.8456359,1.5973123e-05,3304
0.01908,0.00954,242.772226,-242.769546,0.16,0,50.0211165,1.42302416e-05,3304
0.01916,0.00958,243.708407,-243.707444,0.08,0,50.4316313,1.62875376e-05,3400
0.01924,0.00962,244.650241,-244.647247,0.08,0,50.6054771,1.43048659e-05,3400
0.01932,0.00966,245.588703,-245.588668,0.08,0,50.7988143,1.59474398e-05,3400
0.0194,0.0097,246.536511,-246.530493,0.08,0,50.9680116,1.26327333e-05,3400
0.01948,0.00974,247.477423,-247.470241,0.08,0,51.1487033,1.46078107e-05,3400
0.01956,0.00978,248.414554,-248.408651,0.16,0,51.321888,1.56613879e-05,3400
0.01964,0.00982,249.350557,-249.345786,0.08,0,51.7382574,1.59143173e-05,3487
0.01972,0.00986,250.293776,-250.283678,0.08,0,51.9260304,1.5270995e-05,3487
0.0198,0.0099,251.22841,-251.224878,0.08,0,52.1136878,1.52355023e-05,3487
0.01988,0.00994,252.168343,-252.163265,0.08,0,52.3126626,1.46498893e-05,3487
0.01996,0.00998,253.10956,-253.102829,0.08,0,52.5144486,1.53225816e-05,3487
0.02004,0.01002,254.049397,-254.043539,0.16,0,52.6983976,1.37807223e-05,3487
0.02012,0.01006,254.993136,-254.982139,0.08,0,53.1737549,1.45908976e-05,3571
0.0202,0.0101,255.925888,-255.91824,0.08,0,53.3566968,1.50525712e-05,3571
0.02028,0.01014,256.861955,-256.856237,0.08,0,53.5560372,1.50899396e-05,3571
0.02036,0.01018,257.796025,-257.792632,0.08,0,53.7321877,1.49461438e-05,3571
0.02044,0.01022,258.729679,-258.728959,0.08,0,53.9463093,1.57160742e-05,3571
0.02052,0.01026,259.672335,-259.66544,0.16,0,54.1468432,1.33110969e-05,3571
0.0206,0.0103,260.606982,-260.601756,0.08,0,54.5554576,1.50790518e-05,3655
0.02068,0.01034,261.541802,-261.53769,0.08,0,54.7247617,1.43517268e-05,3655
0.02076,0.01038,262.484622,-262.469733,0.08,0,54.9194727,1.62804361e-05,3655
0.02084,0.01042,263.41504,-263.404365,0.08,0,55.0862551,1.55756522e-05,3655
0.02092,0.01046,264.344697,-264.340754,0.08,0,55.2751143,1.47347452e-05,3655
0.021,0.0105,265.283472,-265.277981,0.16,0,55.4494033,1.38157856e-05,3655
0.02108,0.01054,266.222536,-266.213752,0.08,0,55.8727074,1.58099176e-05,3739
0.02116,0.01058,267.154128,-267.150889,0.08,0,56.0409191,1.58773279e-05,3739
0.02124,0.01062,268.096856,-268.086655,0.08,0,56.2291074,1.503675e-05,3739
0.02132,0.01066,269.033907,-269.022807,0.08,0,56.3965929,1.53904247e-05,3739
0.0214,0.0107,269.964215,-269.959021,0.08,0,56.5798628,1.61008754e-05,3739
0.02148,0.01074,270.907444,-270.893197,0.16,0,56.7557862,1.53978016e-05,3739
0.02156,0.01078,271.83351,-271.831829,0.08,0,57.2410145,1.46054922e-05,3823
0.02164,0.01082,272.77298,-272.766387,0.08,0,57.4362304,1.53716004e-05,3823
0.02172,0.01086,273.709119,-273.702141,0.08,0,57.6089559,1.49256781e-05,3823
0.0218,0.0109,274.644597,-274.637982,0.08,0,57.7956703,1.38247049e-05,3823
0.02188,0.01094,275.578049,-275.574893,0.08,0,57.9931026,1.31556374e-05,3823
0.02196,0.01098,276.514645,-276.509773,0.16,0,58.1721065,1.39802764e-05,3823
0.02204,0.01102,277.455837,-277.445646,0.08,0,58.5902038,1.33960185e-05,3895
0.02212,0.01106,278.380264,-278.378312,0.08,0,58.7738254,1.55204307e-05,3895
0.0222,0.0111,279.317975,-279.312222,0.08,0,58.9419835,1.30262797e-05,3895
0.02228,0.01114,280.247478,-280.246206,0.08,0,59.132463,1.41822864e-05,3895
0.02236,0.01118,281.185174,-281.181985,0.08,0,59.3168457,1.34297544e-05,3895
0.02244,0.01122,282.119714,-282.114978,0.16,0,59.5166917,1.45762517e-05,3895
0.02252,0.01126,283.058277,-283.051806,0.08,0,59.9330823,1.33763541e-05,3970
0.0226,0.0113,283.993449,-283.987347,0.08,0,60.1091094,1.33765326e-05,3970
0.02268,0.01134,284.928641,-284.922103,0.08,0,60.2857621,1.40019844e-05,3970
0.02276,0.01138,285.862895,-285.854462,0.08,0,60.4543562,1.33112974e-05,3970
0.02284,0.01142,286.792654,-286.788746,0.08,0,60.6406708,1.29978172e-05,3970
0.02292,0.01146,287.731808,-287.723282,0.16,0,60.8303511,1.20075867e-05,3970
0.023,0.0115,288.663351,-288.658049,0.08,0,61.2396786,1.29107853e-05,4054
0.02308,0.01154,289.598397,-289.590732,0.08,0,61.4156814,1.31938862e-05,4054
0.02316,0.01158,290.529674,-290.525134,0.08,0,61.6075895,1.24468649e-05,4054
0.02324,0.01162,291.460758,-291.457754,0.08,0,61.7883101,1.21768069e-05,4054
0.02332,0.01166,292.39781,-292.390965,0.08,0,61.9583542,1.23378967e-05,4054
0.0234,0.0117,293.329508,-293.325015,0.16,0,62.1495888,1.11102593e-05,4054
0.02348,0.01174,294.265765,-294.258959,0.08,0,62.5778923,1.19394112e-05,4138
0.02356,0.01178,295.193242,-295.192889,0.08,0,62.7552516,1.23412628e-05,4138
0.02364,0.01182,296.125926,-296.121624,0.08,0,62.9335489,1.34769063e-05,4138
0.02372,0.01186,297.058617,-297.053294,0.08,0,63.1371913,1.35215287e-05,4138
0.0238,0.0119,297.989565,-297.985288,0.08,0,63.3309989,1.29337862e-05,4138
0.02388,0.01194,298.922837,-298.918522,0.16,0,63.5292158,1.26111848e-05,4138
0.02396,0.01198,299.856418,-299.851881,0.08,0,63.9323757,1.22281473e-05,4222
0.02404,0.01202,300.787896,-300.784304,0.08,0,64.113951,1.23524596e-05,4222
0.02412,0.01206,301.719233,-301.715738,0.08,0,64.3093421,1.28796696e-05,4222
0.0242,0.0121,302.648473,-302.647198,0.08,0,64.4793522,1.24862495e-05,4222
0.02428,0.01214,303.578874,-303.577182,0.08,0,64.7060442,1.26621165e-05,4222
0.02436,0.01218,304.503686,-304.505115,0.16,0,64.8770978,1.26021039e-05,4222
0.02452,0.01226,306.353317,-306.355908,0.16,0,65.1253891,2.30492922e-05,4230
0.02468,0.01234,308.209634,-308.212235,0.16,0,65.3604269,1.68744796e-05,4238
0.02484,0.01242,310.075173,-310.072906,0.16,0,65.6260722,1.91436914e-05,4246
0.025,0.0125,311.93668,-311.936424,0.16,0,65.8983462,1.87298235e-05,4254
0.02516,0.01258,313.79873,-313.796867,0.16,0,66.1712885,2.03290707e-05,4262
0.02532,0.01266,315.667326,-315.659207,0.32,0,66.4380593,2.12323083e-05,4270
0.02548,0.01274,317.521563,-317.515731,0.16,0,67.0395443,2.33656909e-05,4446
0.02564,0.01282,319.382457,-319.373356,0.16,0,67.2814951,2.23044969e-05,4454
0.0258,0.0129,321.240603,-321.232918,0.16,0,67.5195596,2.27092073e-05,4462
0.02596,0.01298,323.100137,-323.087596,0.16,0,67.7593901,2.45104369e-05,4470
0.02612,0.01306,324.962148,-324.952399,0.16,0,68.0516851,2.1279103e-05,4478
0.02628,0.01314,326.827213,-326.815842,0.32,0,68.3559103,2.20952242e-05,4486
0.02644,0.01322,328.69201,-328.679165,0.16,0,68.9545839,2.13826095e-05,4662
0.0266,0.0133,330.55121,-330.540523,0.16,0,69.208324,2.03734065e-05,4670
0.02676,0.01338,332.414508,-332.402518,0.16,0,69.498065,2.08989588e-05,4678
0.02692,0.01346,334.268053,-334.260021,0.16,0,69.7606988,2.01891084e-05,4686
0.02708,0.01354,336.125832,-336.116355,0.16,0,69.9947891,2.01591138e-05,4694
0.02724,0.01362,337.986572,-337.970646,0.32,0,70.2352126,1.98745647e-05,4702
0.0274,0.0137,339.841341,-339.829334,0.16,0,70.7936051,1.83541062e-05,4878
0.02756,0.01378,341.699477,-341.685252,0.16,0,71.0574481,1.80264984e-05,4886
0.02772,0.01386,343.555877,-343.54506,0.16,0,71.2749033,1.7589136e-05,4894
0.02788,0.01394,345.424398,-345.398187,0.16,0,71.5014842,1.81639332e-05,4902
0.02804,0.01402,347.265765,-347.258732,0.16,0,71.7216291,1.77522854e-05,4910
0.0282,0.0141,349.135625,-349.111729,0.32,0,71.9674416,1.74000605e-05,4918
0.02836,0.01418,350.973245,-350.968248,0.16,0,72.5099237,1.91697829e-05,5094
0.02852,0.01426,352.830638,-352.816067,0.16,0,72.7411582,2.11211286e-05,5102
0.02868,0.01434,354.676921,-354.669501,0.16,0,72.9816215,1.98499539e-05,5110
0.02884,0.01442,356.524009,-356.521658,0.16,0,73.2114537,1.86233013e-05,5118
0.029,0.0145,358.390511,-358.367158,0.16,0,73.4196491,2.1183749e-05,5126
0.02916,0.01458,360.223501,-360.220234,0.32,0,73.6421003,2.03652787e-05,5134
0.02932,0.01466,362.092714,-362.066696,0.16,0,74.1718457,2.07560135e-05,5310
0.02948,0.01474,363.934236,-363.921958,0.16,0,74.3936737,1.94216442e-05,5318
0.02964,0.01482,365.791596,-365.771101,0.16,0,74.6557391,1.95923981e-05,5326
0.0298,0.0149,367.629522,-367.622733,0.16,0,74.8913839,2.17171672e-05,5334
0.02996,0.01498,369.494706,-369.469235,0.16,0,75.1463146,2.19121809e-05,5342
0.03012,0.01506,371.328177,-371.324024,0.32,0,75.3746123,2.10530795e-05,5350
0.03028,0.01514,373.192441,-373.174966,0.16,0,75.9278715,2.03960536e-05,5526
0.03044,0.01522,375.030811,-375.027991,0.16,0,76.1660869,2.26178242e-05,5534
0.0306,0.0153,376.889346,-376.87912,0.16,0,76.3844147,2.15468091e-05,5542
0.03076,0.01538,378.733911,-378.726588,0.16,0,76.6303585,2.30100153e-05,5550
0.03092,0.01546,380.589518,-380.574477,0.16,0,76.8699923,2.14903085e-05,5558
0.03108,0.01554,382.435677,-382.422694,0.32,0,77.1351545,2.25132629e-05,5566
0.03124,0.01562,384.282648,-384.274893,0.16,0,77.682225,2.03604008e-05,5754
0.0314,0.0157,386.135383,-386.122982,0.16,0,77.9457178,2.19187715e-05,5762
0.03156,0.01578,387.992828,-387.972755,0.16,0,78.2104423,2.3049374e-05,5770
0.03172,0.01586,389.833231,-389.825259,0.16,0,78.5097523,2.31376311e-05,5778
0.03188,0.01594,391.684769,-391.672606,0.16,0,78.7716703,2.250586e-05,5786
0.03204,0.01602,393.53385,-393.522766,0.32,0,79.0347683,1.98237007e-05,5794
0.0322,0.0161,395.37898,-395.369542,0.16,0,79.6144869,2.14867791e-05,5982
0.03236,0.01618,397.223762,-397.215157,0.16,0,79.8769348,2.19031378e-05,5990
0.03252,0.01626,399.066359,-399.060514,0.16,0,80.1219909,2.31149817e-05,5998
0.03268,0.01634,400.913372,-400.909524,0.16,0,80.3600714,1.95345234e-05,6006
0.03284,0.01642,402.761174,-402.75858,0.16,0,80.5625377,2.27045542e-05,6014
0.033,0.0165,404.606276,-404.60699,0.32,0,80.7683902,1.92038263e-05,6022
0.03316,0.01658,406.458091,-406.456238,0.16,0,81.2488079,2.09945663e-05,6210
0.03332,0.01666,408.302374,-408.304001,0.16,0,81.466439,1.93300978e-05,6218
0.03348,0.01674,410.149313,-410.148542,0.16,0,81.6896989,2.15623265e-05,6226
0.03364,0.01682,411.995663,-411.99583,0.16,0,81.911087,1.98944655e-05,6234
0.0338,0.0169,413.836104,-413.835568,0.16,0,82.1198549,2.22498957e-05,6242
0.03396,0.01698,415.684997,-415.682593,0.32,0,82.3315682,1.94816643e-05,6250
0.03412,0.01706,417.52852,-417.524374,0.16,0,82.8352897,2.13600094e-05,6438
0.03428,0.01714,419.371715,-419.370871,0.16,0,83.0537732,2.06808885e-05,6446
0.03444,0.01722,421.214726,-421.211493,0.16,0,83.2783701,2.17727357e-05,6454
0.0346,0.0173,423.061347,-423.056905,0.16,0,83.4904664,2.09171432e-05,6462
0.03476,0.01738,424.896134,-424.894741,0.16,0,83.7181015,2.2373445e-05,6470
0.03492,0.01746,426.74282,-426.736412,0.32,0,83.9336514,2.09664218e-05,6478
0.03508,0.01754,428.581385,-428.577504,0.16,0,84.429662,2.11795952e-05,6666
0.03524,0.01762,430.424766,-430.418919,0.16,0,84.6559856,1.96355626e-05,6674
0.0354,0.0177,432.265948,-432.25994,0.16,0,84.8756137,1.94620094e-05,6682
0.03556,0.01778,434.11463,-434.105239,0.16,0,85.1018205,1.99767893e-05,6690
0.03572,0.01786,435.946851,-435.944708,0.16,0,85.3099976,2.14065891e-05,6698
0.03588,0.01794,437.789467,-437.78155,0.32,0,85.5279226,1.96135418e-05,6706
0.03604,0.01802,439.634826,-439.618263,0.16,0,86.0029752,2.24233134e-05,6894
0.0362,0.0181,441.462942,-441.458728,0.16,0,86.2070458,2.09768504e-05,6902
0.03636,0.01818,443.318699,-443.298079,0.16,0,86.4391446,2.11620008e-05,6906
0.03652,0.01826,445.150784,-445.142468,0.16,0,86.6549997,2.13915383e-05,6914
0.03668,0.01834,447.002664,-446.982491,0.16,0,86.8633728,2.25149037e-05,6918
0.03684,0.01842,448.836896,-448.827389,0.32,0,87.0843604,2.09248333e-05,6922
0.037,0.0185,450.682936,-450.669782,0.16,0,87.5685945,2.08830534e-05,7106
0.03716,0.01858,452.526821,-452.5126,0.16,0,87.7858677,2.09161481e-05,7110
0.03732,0.01866,454.36418,-454.354947,0.16,0,88.0179727,1.9503301e-05,7114
0.03748,0.01874,456.208663,-456.191729,0.16,0,88.2364714,2.04913265e-05,7118
0.03764,0.01882,458.03908,-458.03244,0.16,0,88.4518631,1.99248555e-05,7122
0.0378,0.0189,459.891926,-459.872753,0.32,0,88.6631696,1.9476557e-05,7126
0.03796,0.01898,461.718551,-461.71321,0.16,0,89.1440454,2.08392266e-05,7310
0.03812,0.01906,463.56872,-463.557753,0.16,0,89.3857088,1.80821037e-05,7314
0.03828,0.01914,465.408928,-465.402071,0.16,0,89.6145625,1.90263709e-05,7318
0.03844,0.01922,467.254376,-467.247092,0.16,0,89.8182275,1.78535317e-05,7322
0.0386,0.0193,469.091865,-469.090573,0.16,0,90.0463157,1.80198682e-05,7324
0.03876,0.01938,470.948664,-470.928844,0.32,0,90.2604334,1.87142726e-05,7324
0.03892,0.01946,472.779491,-472.761775,0.16,0,90.7421734,1.97294027e-05,7504
0.03908,0.01954,474.608194,-474.595851,0.16,0,90.9545956,1.93544169e-05,7504
0.03924,0.01962,476.430659,-476.431014,0.16,0,91.1903389,1.92886148e-05,7504
0.0394,0.0197,478.278346,-478.260262,0.16,0,91.4047859,1.99045311e-05,7504
0.03956,0.01978,480.102673,-480.099249,0.16,0,91.6198018,1.96218895e-05,7504
0.03972,0.01986,481.942659,-481.935714,0.32,0,91.8409593,1.90001073e-05,7504
0.03988,0.01994,483.785148,-483.772928,0.16,0,92.3170829,1.95224147e-05,7684
0.04004,0.02002,485.642443,-485.608272,0.16,0,92.5269182,1.9398291e-05,7684
0.0402,0.0201,487.46639,-487.447046,0.16,0,92.7677953,2.10246776e-05,7684
0.04036,0.02018,489.297061,-489.286375,0.16,0,92.9683075,1.94218486e-05,7684
0.04052,0.02026,491.13263,-491.123955,0.16,0,93.1859465,1.93187475e-05,7684
0.04068,0.02034,492.973384,-492.960986,0.32,0,93.4104664,1.84578521e-05,7684
0.04084,0.02042,494.804926,-494.795756,0.16,0,93.8899419,2.05954863e-05,7864
0.041,0.0205,496.635441,-496.629053,0.16,0,94.1032717,1.96696353e-05,7864
0.04116,0.02058,498.462484,-498.456435,0.16,0,94.3181942,2.1729351e-05,7864
0.04132,0.02066,500.290281,-500.287885,0.16,0,94.5181515,1.99936206e-05,7864
0.04148,0.02074,502.122455,-502.115954,0.16,0,94.7266512,2.20080291e-05,7864
0.04164,0.02082,503.953111,-503.949373,0.32,0,94.9520769,1.82989198e-05,7864
0.0418,0.0209,505.789783,-505.780365,0.16,0,95.4312642,1.97649352e-05,8044
0.04196,0.02098,507.623095,-507.616642,0.16,0,95.6399007,1.74674638e-05,8044
0.04212,0.02106,509.460624,-509.453629,0.16,0,95.8562934,1.93571025e-05,8044
0.04228,0.02114,511.299751,-511.287548,0.16,0,96.0767782,1.84739164e-05,8044
0.04244,0.02122,513.128787,-513.121374,0.16,0,96.3003638,2.03823043e-05,8044
0.0426,0.0213,514.970835,-514.955996,0.32,0,96.5203443,1.77608071e-05,8044
0.04276,0.02138,516.800279,-516.790065,0.16,0,96.9892671,1.95779935e-05,8224
0.04292,0.02146,518.631322,-518.618736,0.16,0,97.2176237,2.0564488e-05,8224
0.04308,0.02154,520.459257,-520.451035,0.16,0,97.4293702,1.97331603e-05,8224
0.04324,0.02162,522.295274,-522.282608,0.16,0,97.6402304,1.86307353e-05,8224
0.0434,0.0217,524.121332,-524.115023,0.16,0,97.8633821,1.9514708e-05,8224
0.04356,0.02178,525.95244,-525.948397,0.32,0,98.1044505,1.96584242e-05,8224
0.04372,0.02186,527.790508,-527.781863,0.16,0,98.6109874,1.99446385e-05,8404
0.04388,0.02194,529.615736,-529.612339,0.16,0,98.8194721,1.98419263e-05,8404
0.04404,0.02202,531.449441,-531.444342,0.16,0,99.0334256,2.20010593e-05,8404
0.0442,0.0221,533.281126,-533.276927,0.16,0,99.2573988,1.97014241e-05,8404
0.04436,0.02218,535.115366,-535.113278,0.16,0,99.4775729,1.8662121e-05,8404
0.04452,0.02226,536.947654,-536.945996,0.32,0,99.6863739,1.99245587e-05,8404
0.04468,0.02234,538.778959,-538.773735,0.16,0,100.160696,2.11021119e-05,8584
0.04484,0.02242,540.604226,-540.604209,0.16,0,100.376503,2.07879834e-05,8584
0.045,0.0225,542.435608,-542.434351,0.16,0,100.588417,2.00368787e-05,8584
0.04516,0.02258,544.261016,-544.260978,0.16,0,100.808556,2.12644815e-05,8584
0.04532,0.02266,546.089991,-546.089571,0.16,0,101.019919,2.03075879e-05,8584
0.04548,0.02274,547.926897,-547.919649,0.32,0,101.250378,1.87674594e-05,8584
0.04564,0.02282,549.751384,-549.750773,0.16,0,101.735106,1.86611685e-05,8752
0.0458,0.0229,551.582562,-551.575516,0.16,0,101.948663,1.98372258e-05,8752
0.04596,0.02298,553.407424,-553.407805,0.16,0,102.159691,1.95572707e-05,8752
0.04612,0.02306,555.240398,-555.230827,0.16,0,102.374221,1.99481156e-05,8752
0.04628,0.02314,557.060913,-557.060557,0.16,0,102.582213,1.97565122e-05,8752
0.04644,0.02322,558.891978,-558.889194,0.32,0,102.797044,1.74009961e-05,8752
0.0466,0.0233,560.723961,-560.717425,0.16,0,103.261298,1.9659386e-05,8920
0.04676,0.02338,562.546108,-562.543057,0.16,0,103.496509,2.01347358e-05,8920
0.04692,0.02346,564.371939,-564.368843,0.16,0,103.695962,1.97281316e-05,8920
0.04708,0.02354,566.199653,-566.194936,0.16,0,103.915693,1.88250384e-05,8920
0.04724,0.02362,568.023589,-568.022914,0.16,0,104.126981,1.96800422e-05,8920
0.0474,0.0237,569.853041,-569.846166,0.32,0,104.361585,2.00419681e-05,8920
0.04756,0.02378,571.678998,-571.672848,0.16,0,104.83512,2.10682666e-05,9076
0.04772,0.02386,573.507673,-573.502218,0.16,0,105.061166,2.00045651e-05,9076
0.04788,0.02394,575.338744,-575.331338,0.16,0,105.288268,2.06544565e-05,9076
0.04804,0.02402,577.160319,-577.155839,0.16,0,105.510643,2.13148139e-05,9076
0.0482,0.0241,578.989091,-578.982977,0.16,0,105.716344,2.08716617e-05,9076
0.04836,0.02418,580.812014,-580.806009,0.32,0,105.936019,2.08723218e-05,9076
0.04852,0.02426,582.641056,-582.637945,0.16,0,106.387626,1.98447103e-05,9232
0.04868,0.02434,584.469379,-584.463264,0.16,0,106.597972,2.07260638e-05,9232
0.04884,0.02442,586.294982,-586.294136,0.16,0,106.79605,2.0312315e-05,9232
0.049,0.0245,588.120143,-588.118767,0.16,0,107.004895,1.91872975e-05,9232
0.04916,0.02458,589.944312,-589.941461,0.16,0,107.217627,2.04073564e-05,9232
0.04932,0.02466,591.760675,-591.761935,0.32,0,107.419851,2.05463072e-05,9232
0.04948,0.02474,593.586506,-593.584112,0.16,0,107.878605,2.07235197e-05,9388
0.04964,0.02482,595.410994,-595.405831,0.16,0,108.100527,1.86513876e-05,9388
0.0498,0.0249,597.229136,-597.230226,0.16,0,108.315155,1.9158158e-05,9388
0.04996,0.02498,599.058525,-599.054811,0.16,0,108.529781,1.86004652e-05,9388
0.05012,0.02506,600.874886,-600.877667,0.16,0,108.733505,2.0825878e-05,9388
0.05028,0.02514,602.706888,-602.70199,0.32,0,108.952394,1.85685551e-05,9388
0.05044,0.02522,604.52128,-604.519588,0.16,0,109.467375,2.23314293e-05,9544
0.0506,0.0253,606.346781,-606.338334,0.16,0,109.685349,2.1553528e-05,9544
0.05076,0.02538,608.169603,-608.162069,0.16,0,109.929229,2.08008765e-05,9544
0.05092,0.02546,609.985116,-609.983177,0.16,0,110.14147,2.02476049e-05,9544
0.05108,0.02554,611.81992,-611.807385,0.16,0,110.330517,1.99564124e-05,9544
0.05124,0.02562,613.643052,-613.628128,0.32,0,110.562728,2.15209135e-05,9544
0.0514,0.0257,615.456861,-615.451571,0.16,0,111.058254,2.28397835e-05,9694
0.05156,0.02578,617.272576,-617.270428,0.16,0,111.262686,2.04647037e-05,9694
0.05172,0.02586,619.099636,-619.089693,0.16,0,111.479803,2.21301781e-05,9694
0.05188,0.02594,620.911649,-620.908189,0.16,0,111.688164,2.15988094e-05,9694
0.05204,0.02602,622.736676,-622.73249,0.16,0,111.907281,1.91247449e-05,9694
0.0522,0.0261,624.558737,-624.554861,0.32,0,112.133036,2.08156122e-05,9694
0.05236,0.02618,626.385765,-626.375001,0.16,0,112.616982,2.13870288e-05,9838
0.05252,0.02626,628.201288,-628.198284,0.16,0,112.821365,1.84520611e-05,9838
0.05268,0.02634,630.034091,-630.022421,0.16,0,113.015924,1.93910343e-05,9838
0.05284,0.02642,631.851624,-631.844809,0.16,0,113.218432,1.94440916e-05,9838
0.053,0.0265,633.679434,-633.666748,0.16,0,113.44902,2.13643078e-05,9838
0.05316,0.02658,635.494408,-635.487165,0.32,0,113.674793,2.10036473e-05,9838
0.05332,0.02666,637.321151,-637.309892,0.16,0,114.155861,1.99144013e-05,9982
0.05348,0.02674,639.141195,-639.131771,0.16,0,114.367765,1.97378555e-05,9982
0.05364,0.02682,640.970531,-640.955816,0.16,0,114.573815,1.95167454e-05,9982
0.0538,0.0269,642.789566,-642.780927,0.16,0,114.776022,1.86638318e-05,9982
0.05396,0.02698,644.612288,-644.603167,0.16,0,114.994783,1.82685578e-05,9982
0.05412,0.02706,646.430365,-646.427329,0.32,0,115.226711,1.92892396e-05,9982
0.05428,0.02714,648.254238,-648.248785,0.16,0,115.702655,1.84063471e-05,10126
0.05444,0.02722,650.077598,-650.064918,0.16,0,115.897924,2.10749108e-05,10126
0.0546,0.0273,651.89249,-651.884823,0.16,0,116.12307,1.86327224e-05,10126
0.05476,0.02738,653.715417,-653.704202,0.16,0,116.360271,1.85724718e-05,10126
0.05492,0.02746,655.524374,-655.520511,0.16,0,116.601323,2.08043388e-05,10126
0.05508,0.02754,657.342087,-657.336127,0.32,0,116.836986,1.96245838e-05,10126
