# ADR90 WP-A2 tau=0 band, build afb95c40c9e3da1cc97d6aabe8168644c53d0e82 (expected afb95c40c9e3da1cc97d6aabe8168644c53d0e82), leg h1.0_e0.6944
s_m,s_over_B,q_foot_kPa,q_base_kPa,ds_mm,relaxed,wall_s,implex_err_avg,implex_refusals
2e-05,1e-05,2.73884294,-0.563280637,0.02,0,0.0739569664,0.00226130872,0
4e-05,2e-05,2.23070501,-2.16056071,0.02,0,0.156977654,0.000430746085,0
6e-05,3e-05,2.59500075,-2.65246655,0.02,0,0.249702454,0.000224179238,0
8e-05,4e-05,2.97768936,-3.00798077,0.02,0,0.345392227,0.000154133543,0
0.0001,5e-05,3.34883649,-3.36159697,0.02,0,0.43654418,9.26460994e-05,0
0.00012,6e-05,3.73757147,-3.73888508,0.04,0,0.535233021,7.2683314e-05,0
0.00016,8e-05,4.52069692,-4.52528639,0.04,0,0.638680458,0.000122380239,0
0.0002,0.0001,5.29987018,-5.31796094,0.04,0,0.747225285,0.000132585133,0
0.00024,0.00012,6.06593397,-6.08599026,0.04,0,0.869665861,0.000117258672,0
0.00028,0.00014,6.81866112,-6.83283126,0.04,0,0.986225605,8.82562031e-05,0
0.00032,0.00016,7.55392357,-7.55644309,0.04,0,1.09478378,6.79547692e-05,0
0.00036,0.00018,8.25850511,-8.25787319,0.08,0,1.20776129,5.33667667e-05,0
0.00044,0.00022,9.64259267,-9.63708318,0.08,0,1.36639118,9.47421011e-05,8
0.00052,0.00026,10.9719996,-10.9794844,0.08,0,1.54849601,0.000108955493,16
0.0006,0.0003,12.2738929,-12.276588,0.08,0,1.72974658,0.000103668125,20
0.00068,0.00034,13.5396263,-13.5515288,0.08,0,1.90557814,9.48270367e-05,24
0.00076,0.00038,14.7852969,-14.7998621,0.08,0,2.09779072,9.36703051e-05,28
0.00084,0.00042,16.0103887,-16.018875,0.16,0,2.28335214,8.75143327e-05,32
0.00092,0.00046,17.2210598,-17.225194,0.08,0,2.73443747,7.7828182e-05,96
0.001,0.0005,18.4349293,-18.4231295,0.08,0,2.91732216,7.39076774e-05,100
0.00108,0.00054,19.6255649,-19.6244565,0.08,0,3.08734441,6.22271952e-05,100
0.00116,0.00058,20.8407382,-20.8146927,0.08,0,3.2744658,6.49785184e-05,100
0.00124,0.00062,22.0376719,-22.0131912,0.08,0,3.44673777,6.30336298e-05,100
0.00132,0.00066,23.21214,-23.2260744,0.16,0,3.61575699,5.47821539e-05,100
0.0014,0.0007,24.3934663,-24.4382999,0.08,0,4.07323146,5.43226011e-05,160
0.00148,0.00074,25.5629768,-25.565175,0.08,0,4.23367143,5.25118344e-05,160
0.00156,0.00078,26.680387,-26.5312663,0.08,0,4.4082067,4.62657466e-05,160
0.00164,0.00082,27.8079292,-27.7720049,0.08,0,4.57193804,3.90575841e-05,160
0.00172,0.00086,28.9457054,-28.9189997,0.08,0,4.76037979,3.48576053e-05,160
0.0018,0.0009,30.0833767,-30.0548973,0.16,0,4.93981338,3.08552045e-05,160
0.00188,0.00094,31.2138995,-31.1804247,0.08,0,5.37896562,3.09887105e-05,220
0.00196,0.00098,32.3410558,-32.3052567,0.08,0,5.55782485,3.01268988e-05,220
0.00204,0.00102,33.4525813,-33.4297091,0.08,0,5.7547853,2.91227879e-05,220
0.00212,0.00106,34.5631998,-34.5442485,0.08,0,5.9298048,2.83282399e-05,220
0.0022,0.0011,35.6706041,-35.651129,0.08,0,6.11087584,2.69518749e-05,220
0.00228,0.00114,36.7711648,-36.7502414,0.16,0,6.33816195,2.85342822e-05,220
0.00236,0.00118,37.8702191,-37.8525095,0.08,0,6.80887771,2.6507868e-05,292
0.00244,0.00122,38.9637099,-38.9467525,0.08,0,7.00393033,2.57708853e-05,292
0.00252,0.00126,40.055431,-40.029899,0.08,0,7.19855356,2.46797443e-05,292
0.0026,0.0013,41.1437034,-41.1249644,0.08,0,7.39573812,2.53634666e-05,292
0.00268,0.00134,42.2308865,-42.2163758,0.08,0,7.58497381,2.42936266e-05,292
0.00276,0.00138,43.3143633,-43.3060528,0.16,0,7.77694154,2.22415709e-05,292
0.00284,0.00142,44.3959394,-44.3900281,0.08,0,8.23147917,2.34360595e-05,376
0.00292,0.00146,45.4716126,-45.469555,0.08,0,8.42985106,2.3044275e-05,376
0.003,0.0015,46.5431307,-46.5432433,0.08,0,8.61075902,2.38972657e-05,376
0.00308,0.00154,47.6163781,-47.61401,0.08,0,8.78341579,2.25742018e-05,376
0.00316,0.00158,48.6853165,-48.6797371,0.08,0,8.96010399,2.40600148e-05,376
0.00324,0.00162,49.7483883,-49.7460143,0.16,0,9.15337372,2.14862749e-05,376
0.00332,0.00166,50.8118301,-50.8080352,0.08,0,9.61080408,2.09515028e-05,460
0.0034,0.0017,51.8730096,-51.8652161,0.08,0,9.80698442,2.14394325e-05,460
0.00348,0.00174,52.9297915,-52.9247551,0.08,0,9.99687171,2.1252996e-05,460
0.00356,0.00178,53.9862632,-53.9801832,0.08,0,10.1889591,2.21649134e-05,460
0.00364,0.00182,55.0395002,-55.0339283,0.08,0,10.4048853,2.07413522e-05,460
0.00372,0.00186,56.091693,-56.087792,0.16,0,10.6078265,1.80433574e-05,460
0.0038,0.0019,57.1406159,-57.138952,0.08,0,11.0733249,1.89008195e-05,544
0.00388,0.00194,58.1863466,-58.1859594,0.08,0,11.2452343,1.88262661e-05,544
0.00396,0.00198,59.2308613,-59.230197,0.08,0,11.4305079,1.96862155e-05,544
0.00404,0.00202,60.2756973,-60.2743734,0.08,0,11.6305065,1.83614036e-05,544
0.00412,0.00206,61.3195087,-61.3171302,0.08,0,11.8221197,1.79374525e-05,544
0.0042,0.0021,62.358958,-62.3574434,0.16,0,12.0124803,2.09339676e-05,544
0.00428,0.00214,63.4039645,-63.3935269,0.08,0,12.4424026,2.02279649e-05,628
0.00436,0.00218,64.4416669,-64.4303455,0.08,0,12.6438122,1.97022332e-05,628
0.00444,0.00222,65.4794974,-65.4655045,0.08,0,12.8150702,1.74959347e-05,628
0.00452,0.00226,66.5134078,-66.4960874,0.08,0,12.994067,2.05724634e-05,628
0.0046,0.0023,67.5369265,-67.5287315,0.08,0,13.1685088,1.81355549e-05,628
0.00468,0.00234,68.5660111,-68.5582676,0.16,0,13.3409986,1.87834551e-05,628
0.00476,0.00238,69.5887487,-69.5847725,0.08,0,13.7830389,1.88074402e-05,712
0.00484,0.00242,70.6131827,-70.6098298,0.08,0,13.9585516,1.9058028e-05,712
0.00492,0.00246,71.6430934,-71.6345358,0.08,0,14.1562219,1.80361066e-05,712
0.005,0.0025,72.6638923,-72.657936,0.08,0,14.32847,1.99221452e-05,712
0.00508,0.00254,73.6833773,-73.6794622,0.08,0,14.4909668,1.95369921e-05,712
0.00516,0.00258,74.7063685,-74.6999237,0.16,0,14.6759045,2.03979004e-05,712
0.00524,0.00262,75.7248809,-75.7203658,0.08,0,15.1040573,1.93920203e-05,796
0.00532,0.00266,76.746895,-76.7398816,0.08,0,15.2773042,1.84239214e-05,796
0.0054,0.0027,77.7686336,-77.7591786,0.08,0,15.4467866,1.85042106e-05,796
0.00548,0.00274,78.7818444,-78.7773511,0.08,0,15.6343443,1.91543934e-05,796
0.00556,0.00278,79.7951564,-79.7931949,0.08,0,15.8275187,1.75811491e-05,796
0.00564,0.00282,80.8074432,-80.8075389,0.16,0,16.0089326,1.68649202e-05,796
0.00572,0.00286,81.8204974,-81.8179578,0.08,0,16.4454069,1.78672975e-05,880
0.0058,0.0029,82.8343738,-82.8304775,0.08,0,16.600529,1.58663202e-05,880
0.00588,0.00294,83.8441216,-83.8390368,0.08,0,16.7818964,1.84064192e-05,880
0.00596,0.00298,84.8520855,-84.8481207,0.08,0,16.973244,1.79961107e-05,880
0.00604,0.00302,85.8539171,-85.8524371,0.08,0,17.133189,1.88777049e-05,880
0.00612,0.00306,86.8624493,-86.8598142,0.16,0,17.3044801,1.67891016e-05,880
0.0062,0.0031,87.8682438,-87.8636585,0.08,0,17.6925519,1.83943727e-05,964
0.00628,0.00314,88.8766449,-88.8701773,0.08,0,17.8656096,1.75442879e-05,964
0.00636,0.00318,89.8817922,-89.8755279,0.08,0,18.0352526,1.75769453e-05,964
0.00644,0.00322,90.8845492,-90.8791842,0.08,0,18.2440882,1.70349157e-05,964
0.00652,0.00326,91.8857271,-91.8809486,0.08,0,18.4246073,1.74518442e-05,964
0.0066,0.0033,92.8872232,-92.8832858,0.16,0,18.5976598,1.53647886e-05,964
0.00668,0.00334,93.8879823,-93.8837211,0.08,0,19.0043161,1.62832998e-05,1048
0.00676,0.00338,94.8870718,-94.8821408,0.08,0,19.1811783,1.5593541e-05,1048
0.00684,0.00342,95.8942206,-95.8768088,0.08,0,19.3696914,1.64975705e-05,1048
0.00692,0.00346,96.8862386,-96.8732444,0.08,0,19.5446792,1.72888913e-05,1048
0.007,0.0035,97.8809535,-97.8682687,0.08,0,19.7179623,1.55176136e-05,1048
0.00708,0.00354,98.8801577,-98.8618965,0.16,0,19.8902755,1.6820621e-05,1048
0.00716,0.00358,99.8689502,-99.8565063,0.08,0,20.2994843,1.65534579e-05,1132
0.00724,0.00362,100.863483,-100.8523,0.08,0,20.494395,1.62981033e-05,1132
0.00732,0.00366,101.855756,-101.84424,0.08,0,20.6864951,1.86639319e-05,1132
0.0074,0.0037,102.845206,-102.837512,0.08,0,20.8604705,1.59498503e-05,1132
0.00748,0.00374,103.837974,-103.829108,0.08,0,21.0642219,1.58332579e-05,1132
0.00756,0.00378,104.830139,-104.821148,0.16,0,21.2554357,1.52778839e-05,1132
0.00764,0.00382,105.816175,-105.809848,0.08,0,21.6732464,1.67884146e-05,1216
0.00772,0.00386,106.804847,-106.796149,0.08,0,21.8857622,1.78209286e-05,1216
0.0078,0.0039,107.792094,-107.785074,0.08,0,22.0628104,1.66413183e-05,1216
0.00788,0.00394,108.778733,-108.772133,0.08,0,22.2273891,1.72710117e-05,1216
0.00796,0.00398,109.765281,-109.758933,0.08,0,22.3802786,1.84270248e-05,1216
0.00804,0.00402,110.753134,-110.747233,0.16,0,22.5445659,1.61306643e-05,1216
0.00812,0.00406,111.735548,-111.73249,0.08,0,22.9583814,1.68293289e-05,1300
0.0082,0.0041,112.722726,-112.719928,0.08,0,23.1236379,1.39922354e-05,1300
0.00828,0.00414,113.703496,-113.698135,0.08,0,23.3022416,1.97033056e-05,1300
0.00836,0.00418,114.686639,-114.680328,0.08,0,23.4935324,1.67896905e-05,1300
0.00844,0.00422,115.667083,-115.661154,0.08,0,23.7261469,1.68880194e-05,1300
0.00852,0.00426,116.650717,-116.644339,0.16,0,23.9014783,1.63122789e-05,1300
0.0086,0.0043,117.630533,-117.626036,0.08,0,24.3023369,1.61661528e-05,1384
0.00868,0.00434,118.612112,-118.608716,0.08,0,24.4780765,1.47852439e-05,1384
0.00876,0.00438,119.592134,-119.587382,0.08,0,24.6487291,1.58683997e-05,1384
0.00884,0.00442,120.571571,-120.566836,0.08,0,24.8197505,1.57295664e-05,1384
0.00892,0.00446,121.546514,-121.542912,0.08,0,24.9929194,1.7210932e-05,1384
0.009,0.0045,122.525299,-122.521483,0.16,0,25.1502759,1.61595649e-05,1384
0.00908,0.00454,123.507568,-123.49905,0.08,0,25.5541792,1.52722427e-05,1468
0.00916,0.00458,124.482647,-124.475924,0.08,0,25.7150829,1.73079963e-05,1468
0.00924,0.00462,125.458832,-125.451404,0.08,0,25.892396,1.70975762e-05,1468
0.00932,0.00466,126.435394,-126.428041,0.08,0,26.0843081,1.58025396e-05,1468
0.0094,0.0047,127.412338,-127.405355,0.08,0,26.2380137,1.62463897e-05,1468
0.00948,0.00474,128.388846,-128.383929,0.16,0,26.4261413,1.5051875e-05,1468
0.00956,0.00478,129.36748,-129.361089,0.08,0,26.8039103,1.51819913e-05,1552
0.00964,0.00482,130.344748,-130.339669,0.08,0,26.9859917,1.47244032e-05,1552
0.00972,0.00486,131.317569,-131.31358,0.08,0,27.1488335,1.63161338e-05,1552
0.0098,0.0049,132.292726,-132.289272,0.08,0,27.3103635,1.34160816e-05,1552
0.00988,0.00494,133.260838,-133.259269,0.08,0,27.4790354,1.58714368e-05,1552
0.00996,0.00498,134.231491,-134.229813,0.16,0,27.649066,1.51914551e-05,1552
0.01004,0.00502,135.200396,-135.198984,0.08,0,28.021467,1.41756015e-05,1624
0.01012,0.00506,136.172004,-136.171473,0.08,0,28.2039361,1.46435086e-05,1624
0.0102,0.0051,137.14084,-137.141196,0.08,0,28.3799827,1.35103424e-05,1624
0.01028,0.00514,138.111682,-138.111906,0.08,0,28.5553563,1.38001248e-05,1624
0.01036,0.00518,139.080072,-139.07893,0.08,0,28.7075255,1.47013002e-05,1624
0.01044,0.00522,140.049138,-140.046692,0.16,0,28.8679562,1.39447368e-05,1624
0.01052,0.00526,141.014864,-141.012084,0.08,0,29.2945886,1.48684615e-05,1708
0.0106,0.0053,141.981192,-141.980144,0.08,0,29.4557869,1.41959547e-05,1708
0.01068,0.00534,142.949217,-142.945224,0.08,0,29.627248,1.59839946e-05,1708
0.01076,0.00538,143.917877,-143.915001,0.08,0,29.7842712,1.42973164e-05,1708
0.01084,0.00542,144.889674,-144.881067,0.08,0,29.9452012,1.57055177e-05,1708
0.01092,0.00546,145.851532,-145.848375,0.16,0,30.1450157,1.57295629e-05,1708
0.011,0.0055,146.819438,-146.814954,0.08,0,30.5216525,1.46730979e-05,1792
0.01108,0.00554,147.78566,-147.781594,0.08,0,30.7050686,1.49278096e-05,1792
0.01116,0.00558,148.759423,-148.742839,0.08,0,30.8757117,1.69642388e-05,1792
0.01124,0.00562,149.722205,-149.711791,0.08,0,31.058255,1.31863337e-05,1792
0.01132,0.00566,150.690567,-150.674973,0.08,0,31.2376156,1.51569201e-05,1792
0.0114,0.0057,151.651085,-151.638982,0.16,0,31.5067568,1.44656405e-05,1792
0.01148,0.00574,152.612144,-152.602763,0.08,0,31.9061041,1.45843006e-05,1876
0.01156,0.00578,153.580846,-153.567527,0.08,0,32.0896971,1.21788949e-05,1876
0.01164,0.00582,154.536795,-154.531318,0.08,0,32.2704597,1.40029214e-05,1876
0.01172,0.00586,155.502053,-155.492595,0.08,0,32.4569666,1.3675874e-05,1876
0.0118,0.0059,156.46733,-156.450578,0.08,0,32.638746,1.54537472e-05,1876
0.01188,0.00594,157.425131,-157.412425,0.16,0,32.8098018,1.38189005e-05,1876
0.01196,0.00598,158.384639,-158.372201,0.08,0,33.25403,1.59503225e-05,1960
0.01204,0.00602,159.340452,-159.333019,0.08,0,33.4187231,1.56399062e-05,1960
0.01212,0.00606,160.299723,-160.291455,0.08,0,33.5798171,1.73402745e-05,1960
0.0122,0.0061,161.255164,-161.250233,0.08,0,33.7404532,1.59544662e-05,1960
0.01228,0.00614,162.214683,-162.209997,0.08,0,33.9056652,1.51418803e-05,1960
0.01236,0.00618,163.173703,-163.169391,0.16,0,34.0772991,1.46485028e-05,1960
0.01244,0.00622,164.132962,-164.129008,0.08,0,34.5073502,1.44276346e-05,2056
0.01252,0.00626,165.090222,-165.088106,0.08,0,34.6884844,1.38252738e-05,2056
0.0126,0.0063,166.048344,-166.045335,0.08,0,34.8591969,1.37201212e-05,2056
0.01268,0.00634,167.002954,-166.999656,0.08,0,35.0475426,1.67029629e-05,2056
0.01276,0.00638,167.959283,-167.956938,0.08,0,35.2290912,1.41204596e-05,2056
0.01284,0.00642,168.913592,-168.913355,0.16,0,35.397826,1.415594e-05,2056
0.01292,0.00646,169.869792,-169.868593,0.08,0,35.8365467,1.52775405e-05,2152
0.013,0.0065,170.827531,-170.82453,0.08,0,36.0357296,1.37534788e-05,2152
0.01308,0.00654,171.783411,-171.781178,0.08,0,36.2148414,1.32391824e-05,2152
0.01316,0.00658,172.739222,-172.736057,0.08,0,36.3850203,1.44477074e-05,2152
0.01324,0.00662,173.691576,-173.688737,0.08,0,36.5567634,1.48562944e-05,2152
0.01332,0.00666,174.645911,-174.640891,0.16,0,36.7143035,1.62571999e-05,2152
0.0134,0.0067,175.602196,-175.596734,0.08,0,37.0970526,1.36829695e-05,2248
0.01348,0.00674,176.557188,-176.551317,0.08,0,37.2703931,1.52771704e-05,2248
0.01356,0.00678,177.511781,-177.506881,0.08,0,37.4343522,1.45552663e-05,2248
0.01364,0.00682,178.465776,-178.461023,0.08,0,37.613826,1.57458452e-05,2248
0.01372,0.00686,179.418775,-179.414211,0.08,0,37.7988732,1.53472858e-05,2248
0.0138,0.0069,180.370975,-180.366238,0.16,0,38.0024662,1.54030245e-05,2248
0.01388,0.00694,181.322784,-181.319652,0.08,0,38.391413,1.43103659e-05,2344
0.01396,0.00698,182.277739,-182.274038,0.08,0,38.5669351,1.36211584e-05,2344
0.01404,0.00702,183.231624,-183.229375,0.08,0,38.7320225,1.34103842e-05,2344
0.01412,0.00706,184.185502,-184.183734,0.08,0,38.8940434,1.39240231e-05,2344
0.0142,0.0071,185.136922,-185.135868,0.08,0,39.0625942,1.38882589e-05,2344
0.01428,0.00714,186.090327,-186.089098,0.16,0,39.2371836,1.38684815e-05,2344
0.01436,0.00718,187.041967,-187.040406,0.08,0,39.5975921,1.4804812e-05,2440
0.01444,0.00722,187.993641,-187.992802,0.08,0,39.7742276,1.25651057e-05,2440
0.01452,0.00726,188.946307,-188.945179,0.08,0,39.9417448,1.33759493e-05,2440
0.0146,0.0073,189.898219,-189.896653,0.08,0,40.1094499,1.30950951e-05,2440
0.01468,0.00734,190.851121,-190.848993,0.08,0,40.2613308,1.30494277e-05,2440
0.01476,0.00738,191.801875,-191.800374,0.16,0,40.4431858,1.31643864e-05,2440
0.01484,0.00742,192.751371,-192.750168,0.08,0,40.8261139,1.30264083e-05,2536
0.01492,0.00746,193.701156,-193.698778,0.08,0,41.0020943,1.29141163e-05,2536
0.015,0.0075,194.655312,-194.644144,0.08,0,41.1886404,1.42259972e-05,2536
0.01508,0.00754,195.594512,-195.590868,0.08,0,41.3780971,1.35220931e-05,2536
0.01516,0.00758,196.547173,-196.536415,0.08,0,41.5650396,1.38516042e-05,2536
0.01524,0.00762,197.490844,-197.484793,0.16,0,41.7538927,1.3367743e-05,2536
0.01532,0.00766,198.442192,-198.43191,0.08,0,42.1649923,1.44722342e-05,2632
0.0154,0.0077,199.386391,-199.380986,0.08,0,42.3419473,1.29479559e-05,2632
0.01548,0.00774,200.337939,-200.329401,0.08,0,42.513226,1.37894627e-05,2632
0.01556,0.00778,201.284828,-201.277671,0.08,0,42.6778665,1.41019481e-05,2632
0.01564,0.00782,202.231645,-202.226735,0.08,0,42.8495798,1.26739214e-05,2632
0.01572,0.00786,203.185354,-203.174276,0.16,0,43.0188265,1.18785328e-05,2632
0.0158,0.0079,204.135069,-204.123632,0.08,0,43.4131346,1.17992925e-05,2728
0.01588,0.00794,205.078746,-205.070455,0.08,0,43.5812132,1.19843281e-05,2728
0.01596,0.00798,206.027367,-206.015099,0.08,0,43.7429488,1.31990249e-05,2728
0.01604,0.00802,206.972224,-206.960682,0.08,0,43.9149373,1.36582764e-05,2728
0.01612,0.00806,207.914753,-207.908371,0.08,0,44.0666208,1.26934441e-05,2728
0.0162,0.0081,208.857826,-208.851637,0.16,0,44.2264218,1.43201059e-05,2728
0.01628,0.00814,209.803173,-209.79685,0.08,0,44.6759679,1.3527576e-05,2824
0.01636,0.00818,210.751638,-210.741572,0.08,0,44.8616562,1.37151219e-05,2824
0.01644,0.00822,211.691102,-211.687414,0.08,0,45.027885,1.35476148e-05,2824
0.01652,0.00826,212.63368,-212.629694,0.08,0,45.2014534,1.56868619e-05,2824
0.0166,0.0083,213.579454,-213.573813,0.08,0,45.3917842,1.26973153e-05,2824
0.01668,0.00834,214.523202,-214.514344,0.16,0,45.5649357,1.597443e-05,2824
0.01676,0.00838,215.471054,-215.459349,0.08,0,45.9295523,1.2805624e-05,2920
0.01684,0.00842,216.41157,-216.400665,0.08,0,46.1041222,1.57868071e-05,2920
0.01692,0.00846,217.355032,-217.347592,0.08,0,46.2750955,1.32359105e-05,2920
0.017,0.0085,218.294744,-218.291978,0.08,0,46.4370935,1.50312102e-05,2920
0.01708,0.00854,219.241643,-219.239032,0.08,0,46.5937133,1.24101797e-05,2920
0.01716,0.00858,220.185899,-220.181956,0.16,0,46.7461052,1.44590636e-05,2920
0.01724,0.00862,221.131738,-221.126419,0.08,0,47.1485417,1.36377917e-05,3016
0.01732,0.00866,222.073317,-222.068456,0.08,0,47.2983642,1.47491238e-05,3016
0.0174,0.0087,223.013456,-223.010165,0.08,0,47.4703588,1.44998941e-05,3016
0.01748,0.00874,223.957233,-223.952202,0.08,0,47.6299498,1.34398018e-05,3016
0.01756,0.00878,224.902551,-224.893946,0.08,0,47.8049076,1.49077227e-05,3016
0.01764,0.00882,225.841369,-225.837553,0.16,0,47.9674385,1.38186395e-05,3016
0.01772,0.00886,226.789169,-226.779636,0.08,0,48.3454487,1.42881011e-05,3112
0.0178,0.0089,227.732998,-227.72252,0.08,0,48.5092869,1.38054953e-05,3112
0.01788,0.00894,228.668652,-228.664165,0.08,0,48.6576452,1.47644532e-05,3112
0.01796,0.00898,229.610443,-229.605467,0.08,0,48.8302758,1.4619511e-05,3112
0.01804,0.00902,230.551585,-230.54841,0.08,0,49.0057278,1.44241783e-05,3112
0.01812,0.00906,231.495857,-231.492544,0.16,0,49.1581972,1.35870317e-05,3112
0.0182,0.0091,232.437228,-232.432988,0.08,0,49.5323219,1.44657715e-05,3208
0.01828,0.00914,233.377329,-233.376051,0.08,0,49.7040372,1.30386e-05,3208
0.01836,0.00918,234.318587,-234.315277,0.08,0,49.8755767,1.4258086e-05,3208
0.01844,0.00922,235.258313,-235.256491,0.08,0,50.0302804,1.28077658e-05,3208
0.01852,0.00926,236.200085,-236.196355,0.08,0,50.1950505,1.37610893e-05,3208
0.0186,0.0093,237.13754,-237.134331,0.16,0,50.3701019,1.66809554e-05,3208
0.01868,0.00934,238.076306,-238.074436,0.08,0,50.7583957,1.49771153e-05,3304
0.01876,0.00938,239.019398,-239.016279,0.08,0,50.9270554,1.35383711e-05,3304
0.01884,0.00942,239.957362,-239.954742,0.08,0,51.0847433,1.55732288e-05,3304
0.01892,0.00946,240.896198,-240.892696,0.08,0,51.2337496,1.44656929e-05,3304
0.019,0.0095,241.832671,-241.83072,0.08,0,51.4118557,1.5973123e-05,3304
0.01908,0.00954,242.772226,-242.769546,0.16,0,51.5829768,1.42302416e-05,3304
0.01916,0.00958,243.708407,-243.707444,0.08,0,51.9703159,1.62875376e-05,3400
0.01924,0.00962,244.650241,-244.647247,0.08,0,52.1428583,1.43048659e-05,3400
0.01932,0.00966,245.588703,-245.588668,0.08,0,52.3102643,1.59474398e-05,3400
0.0194,0.0097,246.536511,-246.530493,0.08,0,52.4847276,1.26327333e-05,3400
0.01948,0.00974,247.477423,-247.470241,0.08,0,52.6304917,1.46078107e-05,3400
0.01956,0.00978,248.414554,-248.408651,0.16,0,52.8032815,1.56613879e-05,3400
0.01964,0.00982,249.350557,-249.345786,0.08,0,53.1543465,1.59143173e-05,3487
0.01972,0.00986,250.293776,-250.283678,0.08,0,53.3103623,1.5270995e-05,3487
0.0198,0.0099,251.22841,-251.224878,0.08,0,53.4982421,1.52355023e-05,3487
0.01988,0.00994,252.168343,-252.163265,0.08,0,53.656589,1.46498893e-05,3487
0.01996,0.00998,253.10956,-253.102829,0.08,0,53.8142595,1.53225816e-05,3487
0.02004,0.01002,254.049397,-254.043539,0.16,0,53.965034,1.37807223e-05,3487
0.02012,0.01006,254.993136,-254.982139,0.08,0,54.348475,1.45908976e-05,3571
0.0202,0.0101,255.925888,-255.91824,0.08,0,54.5057626,1.50525712e-05,3571
0.02028,0.01014,256.861955,-256.856237,0.08,0,54.665247,1.50899396e-05,3571
0.02036,0.01018,257.796025,-257.792632,0.08,0,54.8252268,1.49461438e-05,3571
0.02044,0.01022,258.729679,-258.728959,0.08,0,54.9868023,1.57160742e-05,3571
0.02052,0.01026,259.672335,-259.66544,0.16,0,55.1506388,1.33110969e-05,3571
0.0206,0.0103,260.606982,-260.601756,0.08,0,55.5271051,1.50790518e-05,3655
0.02068,0.01034,261.541802,-261.53769,0.08,0,55.6790161,1.43517268e-05,3655
0.02076,0.01038,262.484622,-262.469733,0.08,0,55.8316848,1.62804361e-05,3655
0.02084,0.01042,263.41504,-263.404365,0.08,0,55.9830971,1.55756522e-05,3655
0.02092,0.01046,264.344697,-264.340754,0.08,0,56.1358643,1.47347452e-05,3655
0.021,0.0105,265.283472,-265.277981,0.16,0,56.2922263,1.38157856e-05,3655
0.02108,0.01054,266.222536,-266.213752,0.08,0,56.6690691,1.58099176e-05,3739
0.02116,0.01058,267.154128,-267.150889,0.08,0,56.8204815,1.58773279e-05,3739
0.02124,0.01062,268.096856,-268.086655,0.08,0,56.964448,1.503675e-05,3739
0.02132,0.01066,269.033907,-269.022807,0.08,0,57.1211245,1.53904247e-05,3739
0.0214,0.0107,269.964215,-269.959021,0.08,0,57.2715592,1.61008754e-05,3739
0.02148,0.01074,270.907444,-270.893197,0.16,0,57.4347968,1.53978016e-05,3739
0.02156,0.01078,271.83351,-271.831829,0.08,0,57.7864633,1.46054922e-05,3823
0.02164,0.01082,272.77298,-272.766387,0.08,0,57.9562523,1.53716004e-05,3823
0.02172,0.01086,273.709119,-273.702141,0.08,0,58.1025867,1.49256781e-05,3823
0.0218,0.0109,274.644597,-274.637982,0.08,0,58.2534697,1.38247049e-05,3823
0.02188,0.01094,275.578049,-275.574893,0.08,0,58.4201989,1.31556374e-05,3823
0.02196,0.01098,276.514645,-276.509773,0.16,0,58.5968733,1.39802764e-05,3823
0.02204,0.01102,277.455837,-277.445646,0.08,0,58.9619093,1.33960185e-05,3895
0.02212,0.01106,278.380264,-278.378312,0.08,0,59.1105871,1.55204307e-05,3895
0.0222,0.0111,279.317975,-279.312222,0.08,0,59.2740386,1.30262797e-05,3895
0.02228,0.01114,280.247478,-280.246206,0.08,0,59.4482443,1.41822864e-05,3895
0.02236,0.01118,281.185174,-281.181985,0.08,0,59.6045563,1.34297544e-05,3895
0.02244,0.01122,282.119714,-282.114978,0.16,0,59.7618966,1.45762517e-05,3895
0.02252,0.01126,283.058277,-283.051806,0.08,0,60.130239,1.33763541e-05,3970
0.0226,0.0113,283.993449,-283.987347,0.08,0,60.2788775,1.33765326e-05,3970
0.02268,0.01134,284.928641,-284.922103,0.08,0,60.4439602,1.40019844e-05,3970
0.02276,0.01138,285.862895,-285.854462,0.08,0,60.5915399,1.33112974e-05,3970
0.02284,0.01142,286.792654,-286.788746,0.08,0,60.752995,1.29978172e-05,3970
0.02292,0.01146,287.731808,-287.723282,0.16,0,60.8943934,1.20075867e-05,3970
0.023,0.0115,288.663351,-288.658049,0.08,0,61.257411,1.29107853e-05,4054
0.02308,0.01154,289.598397,-289.590732,0.08,0,61.4169092,1.31938862e-05,4054
0.02316,0.01158,290.529674,-290.525134,0.08,0,61.5843771,1.24468649e-05,4054
0.02324,0.01162,291.460758,-291.457754,0.08,0,61.7508523,1.21768069e-05,4054
0.02332,0.01166,292.39781,-292.390965,0.08,0,61.8971696,1.23378967e-05,4054
0.0234,0.0117,293.329508,-293.325015,0.16,0,62.0603616,1.11102593e-05,4054
0.02348,0.01174,294.265765,-294.258959,0.08,0,62.4029388,1.19394112e-05,4138
0.02356,0.01178,295.193242,-295.192889,0.08,0,62.5627036,1.23412628e-05,4138
0.02364,0.01182,296.125926,-296.121624,0.08,0,62.7216718,1.34769063e-05,4138
0.02372,0.01186,297.058617,-297.053294,0.08,0,62.873502,1.35215287e-05,4138
0.0238,0.0119,297.989565,-297.985288,0.08,0,63.0319541,1.29337862e-05,4138
0.02388,0.01194,298.922837,-298.918522,0.16,0,63.1801255,1.26111848e-05,4138
0.02396,0.01198,299.856418,-299.851881,0.08,0,63.5701346,1.22281473e-05,4222
0.02404,0.01202,300.787896,-300.784304,0.08,0,63.7364733,1.23524596e-05,4222
0.02412,0.01206,301.719233,-301.715738,0.08,0,63.900059,1.28796696e-05,4222
0.0242,0.0121,302.648473,-302.647198,0.08,0,64.0502582,1.24862495e-05,4222
0.02428,0.01214,303.578874,-303.577182,0.08,0,64.1886246,1.26621165e-05,4222
0.02436,0.01218,304.503686,-304.505115,0.16,0,64.3451867,1.26021039e-05,4222
0.02452,0.01226,306.353317,-306.355908,0.16,0,64.5696208,2.30492922e-05,4230
0.02468,0.01234,308.209634,-308.212235,0.16,0,64.7956557,1.68744796e-05,4238
0.02484,0.01242,310.075173,-310.072906,0.16,0,65.0075469,1.91436914e-05,4246
0.025,0.0125,311.93668,-311.936424,0.16,0,65.246829,1.87298235e-05,4254
0.02516,0.01258,313.79873,-313.796867,0.16,0,65.4623392,2.03290707e-05,4262
0.02532,0.01266,315.667326,-315.659207,0.32,0,65.6762984,2.12323083e-05,4270
0.02548,0.01274,317.521563,-317.515731,0.16,0,66.1742558,2.33656909e-05,4446
0.02564,0.01282,319.382457,-319.373356,0.16,0,66.4128542,2.23044969e-05,4454
0.0258,0.0129,321.240603,-321.232918,0.16,0,66.6399095,2.27092073e-05,4462
0.02596,0.01298,323.100137,-323.087596,0.16,0,66.8562946,2.45104369e-05,4470
0.02612,0.01306,324.962148,-324.952399,0.16,0,67.0694158,2.1279103e-05,4478
0.02628,0.01314,326.827213,-326.815842,0.32,0,67.3143206,2.20952242e-05,4486
0.02644,0.01322,328.69201,-328.679165,0.16,0,67.823189,2.13826095e-05,4662
0.0266,0.0133,330.55121,-330.540523,0.16,0,68.0493119,2.03734065e-05,4670
0.02676,0.01338,332.414508,-332.402518,0.16,0,68.2736795,2.08989588e-05,4678
0.02692,0.01346,334.268053,-334.260021,0.16,0,68.4892635,2.01891084e-05,4686
0.02708,0.01354,336.125832,-336.116355,0.16,0,68.7150593,2.01591138e-05,4694
0.02724,0.01362,337.986572,-337.970646,0.32,0,68.9409411,1.98745647e-05,4702
0.0274,0.0137,339.841341,-339.829334,0.16,0,69.4671583,1.83541062e-05,4878
0.02756,0.01378,341.699477,-341.685252,0.16,0,69.6924665,1.80264984e-05,4886
0.02772,0.01386,343.555877,-343.54506,0.16,0,69.9121451,1.7589136e-05,4894
0.02788,0.01394,345.424398,-345.398187,0.16,0,70.1426754,1.81639332e-05,4902
0.02804,0.01402,347.265765,-347.258732,0.16,0,70.3732302,1.77522854e-05,4910
0.0282,0.0141,349.135625,-349.111729,0.32,0,70.6071675,1.74000605e-05,4918
0.02836,0.01418,350.973245,-350.968248,0.16,0,71.0949075,1.91697829e-05,5094
0.02852,0.01426,352.830638,-352.816067,0.16,0,71.3077791,2.11211286e-05,5102
0.02868,0.01434,354.676921,-354.669501,0.16,0,71.5187347,1.98499539e-05,5110
0.02884,0.01442,356.524009,-356.521658,0.16,0,71.7320166,1.86233013e-05,5118
0.029,0.0145,358.390511,-358.367158,0.16,0,71.9640646,2.1183749e-05,5126
0.02916,0.01458,360.223501,-360.220234,0.32,0,72.1662641,2.03652787e-05,5134
0.02932,0.01466,362.092714,-362.066696,0.16,0,72.6556685,2.07560135e-05,5310
0.02948,0.01474,363.934236,-363.921958,0.16,0,72.8662763,1.94216442e-05,5318
0.02964,0.01482,365.791596,-365.771101,0.16,0,73.0825167,1.95923981e-05,5326
0.0298,0.0149,367.629522,-367.622733,0.16,0,73.2955594,2.17171672e-05,5334
0.02996,0.01498,369.494706,-369.469235,0.16,0,73.5026693,2.19121809e-05,5342
0.03012,0.01506,371.328177,-371.324024,0.32,0,73.7206256,2.10530795e-05,5350
0.03028,0.01514,373.192441,-373.174966,0.16,0,74.2187927,2.03960536e-05,5526
0.03044,0.01522,375.030811,-375.027991,0.16,0,74.4434783,2.26178242e-05,5534
0.0306,0.0153,376.889346,-376.87912,0.16,0,74.6593144,2.15468091e-05,5542
0.03076,0.01538,378.733911,-378.726588,0.16,0,74.9012098,2.30100153e-05,5550
0.03092,0.01546,380.589518,-380.574477,0.16,0,75.1422474,2.14903085e-05,5558
0.03108,0.01554,382.435677,-382.422694,0.32,0,75.412292,2.25132629e-05,5566
0.03124,0.01562,384.282648,-384.274893,0.16,0,75.9140744,2.03604008e-05,5754
0.0314,0.0157,386.135383,-386.122982,0.16,0,76.1354246,2.19187715e-05,5762
0.03156,0.01578,387.992828,-387.972755,0.16,0,76.3556342,2.3049374e-05,5770
0.03172,0.01586,389.833231,-389.825259,0.16,0,76.5757661,2.31376311e-05,5778
0.03188,0.01594,391.684769,-391.672606,0.16,0,76.785485,2.250586e-05,5786
0.03204,0.01602,393.53385,-393.522766,0.32,0,77.014854,1.98237007e-05,5794
0.0322,0.0161,395.37898,-395.369542,0.16,0,77.4983191,2.14867791e-05,5982
0.03236,0.01618,397.223762,-397.215157,0.16,0,77.7104874,2.19031378e-05,5990
0.03252,0.01626,399.066359,-399.060514,0.16,0,77.9437654,2.31149817e-05,5998
0.03268,0.01634,400.913372,-400.909524,0.16,0,78.1640003,1.95345234e-05,6006
0.03284,0.01642,402.761174,-402.75858,0.16,0,78.3986597,2.27045542e-05,6014
0.033,0.0165,404.606276,-404.60699,0.32,0,78.6330514,1.92038263e-05,6022
0.03316,0.01658,406.458091,-406.456238,0.16,0,79.1071758,2.09945663e-05,6210
0.03332,0.01666,408.302374,-408.304001,0.16,0,79.3156574,1.93300978e-05,6218
0.03348,0.01674,410.149313,-410.148542,0.16,0,79.5456839,2.15623265e-05,6226
0.03364,0.01682,411.995663,-411.99583,0.16,0,79.7576375,1.98944655e-05,6234
0.0338,0.0169,413.836104,-413.835568,0.16,0,80.0130866,2.22498957e-05,6242
0.03396,0.01698,415.684997,-415.682593,0.32,0,80.247833,1.94816643e-05,6250
0.03412,0.01706,417.52852,-417.524374,0.16,0,80.73314,2.13600094e-05,6438
0.03428,0.01714,419.371715,-419.370871,0.16,0,80.9530857,2.06808885e-05,6446
0.03444,0.01722,421.214726,-421.211493,0.16,0,81.1766038,2.17727357e-05,6454
0.0346,0.0173,423.061347,-423.056905,0.16,0,81.3852034,2.09171432e-05,6462
0.03476,0.01738,424.896134,-424.894741,0.16,0,81.6031766,2.2373445e-05,6470
0.03492,0.01746,426.74282,-426.736412,0.32,0,81.8298869,2.09664218e-05,6478
0.03508,0.01754,428.581385,-428.577504,0.16,0,82.3519933,2.11795952e-05,6666
0.03524,0.01762,430.424766,-430.418919,0.16,0,82.5635118,1.96355626e-05,6674
0.0354,0.0177,432.265948,-432.25994,0.16,0,82.8033643,1.94620094e-05,6682
0.03556,0.01778,434.11463,-434.105239,0.16,0,83.0478911,1.99767893e-05,6690
0.03572,0.01786,435.946851,-435.944708,0.16,0,83.2731507,2.14065891e-05,6698
0.03588,0.01794,437.789467,-437.78155,0.32,0,83.4849315,1.96135418e-05,6706
0.03604,0.01802,439.634826,-439.618263,0.16,0,83.9762323,2.24233134e-05,6894
0.0362,0.0181,441.462942,-441.458728,0.16,0,84.2030687,2.09768504e-05,6902
0.03636,0.01818,443.318699,-443.298079,0.16,0,84.4316185,2.11620008e-05,6906
0.03652,0.01826,445.150784,-445.142468,0.16,0,84.6489978,2.13915383e-05,6914
0.03668,0.01834,447.002664,-446.982491,0.16,0,84.8627629,2.25149037e-05,6918
0.03684,0.01842,448.836896,-448.827389,0.32,0,85.0770361,2.09248333e-05,6922
0.037,0.0185,450.682936,-450.669782,0.16,0,85.562288,2.08830534e-05,7106
0.03716,0.01858,452.526821,-452.5126,0.16,0,85.7830949,2.09161481e-05,7110
0.03732,0.01866,454.36418,-454.354947,0.16,0,86.0072725,1.9503301e-05,7114
0.03748,0.01874,456.208663,-456.191729,0.16,0,86.2280762,2.04913265e-05,7118
0.03764,0.01882,458.03908,-458.03244,0.16,0,86.4533803,1.99248555e-05,7122
0.0378,0.0189,459.891926,-459.872753,0.32,0,86.6901042,1.9476557e-05,7126
0.03796,0.01898,461.718551,-461.71321,0.16,0,87.1574154,2.08392266e-05,7310
0.03812,0.01906,463.56872,-463.557753,0.16,0,87.3669357,1.80821037e-05,7314
0.03828,0.01914,465.408928,-465.402071,0.16,0,87.6010149,1.90263709e-05,7318
0.03844,0.01922,467.254376,-467.247092,0.16,0,87.8215852,1.78535317e-05,7322
0.0386,0.0193,469.091865,-469.090573,0.16,0,88.0541325,1.80198682e-05,7324
0.03876,0.01938,470.948664,-470.928844,0.32,0,88.2933953,1.87142726e-05,7324
0.03892,0.01946,472.779491,-472.761775,0.16,0,88.7703965,1.97294027e-05,7504
0.03908,0.01954,474.608194,-474.595851,0.16,0,88.9808173,1.93544169e-05,7504
0.03924,0.01962,476.430659,-476.431014,0.16,0,89.2156334,1.92886148e-05,7504
0.0394,0.0197,478.278346,-478.260262,0.16,0,89.4267464,1.99045311e-05,7504
0.03956,0.01978,480.102673,-480.099249,0.16,0,89.6476772,1.96218895e-05,7504
0.03972,0.01986,481.942659,-481.935714,0.32,0,89.8618314,1.90001073e-05,7504
0.03988,0.01994,483.785148,-483.772928,0.16,0,90.3648758,1.95224147e-05,7684
0.04004,0.02002,485.642443,-485.608272,0.16,0,90.603106,1.9398291e-05,7684
0.0402,0.0201,487.46639,-487.447046,0.16,0,90.8497627,2.10246776e-05,7684
0.04036,0.02018,489.297061,-489.286375,0.16,0,91.0938783,1.94218486e-05,7684
0.04052,0.02026,491.13263,-491.123955,0.16,0,91.3103781,1.93187475e-05,7684
0.04068,0.02034,492.973384,-492.960986,0.32,0,91.5360005,1.84578521e-05,7684
0.04084,0.02042,494.804926,-494.795756,0.16,0,92.0065539,2.05954863e-05,7864
0.041,0.0205,496.635441,-496.629053,0.16,0,92.2482162,1.96696353e-05,7864
0.04116,0.02058,498.462484,-498.456435,0.16,0,92.4535477,2.1729351e-05,7864
0.04132,0.02066,500.290281,-500.287885,0.16,0,92.6735864,1.99936206e-05,7864
0.04148,0.02074,502.122455,-502.115954,0.16,0,92.892765,2.20080291e-05,7864
0.04164,0.02082,503.953111,-503.949373,0.32,0,93.1212053,1.82989198e-05,7864
0.0418,0.0209,505.789783,-505.780365,0.16,0,93.591557,1.97649352e-05,8044
0.04196,0.02098,507.623095,-507.616642,0.16,0,93.8281631,1.74674638e-05,8044
0.04212,0.02106,509.460624,-509.453629,0.16,0,94.0341156,1.93571025e-05,8044
0.04228,0.02114,511.299751,-511.287548,0.16,0,94.247803,1.84739164e-05,8044
0.04244,0.02122,513.128787,-513.121374,0.16,0,94.4893899,2.03823043e-05,8044
0.0426,0.0213,514.970835,-514.955996,0.32,0,94.7152672,1.77608071e-05,8044
0.04276,0.02138,516.800279,-516.790065,0.16,0,95.2175591,1.95779935e-05,8224
0.04292,0.02146,518.631322,-518.618736,0.16,0,95.4258575,2.0564488e-05,8224
0.04308,0.02154,520.459257,-520.451035,0.16,0,95.6350076,1.97331603e-05,8224
0.04324,0.02162,522.295274,-522.282608,0.16,0,95.8363638,1.86307353e-05,8224
0.0434,0.0217,524.121332,-524.115023,0.16,0,96.0672469,1.9514708e-05,8224
0.04356,0.02178,525.95244,-525.948397,0.32,0,96.2776647,1.96584242e-05,8224
0.04372,0.02186,527.790508,-527.781863,0.16,0,96.7775834,1.99446385e-05,8404
0.04388,0.02194,529.615736,-529.612339,0.16,0,96.9827626,1.98419263e-05,8404
0.04404,0.02202,531.449441,-531.444342,0.16,0,97.2054052,2.20010593e-05,8404
0.0442,0.0221,533.281126,-533.276927,0.16,0,97.4281957,1.97014241e-05,8404
0.04436,0.02218,535.115366,-535.113278,0.16,0,97.6525071,1.8662121e-05,8404
0.04452,0.02226,536.947654,-536.945996,0.32,0,97.8609335,1.99245587e-05,8404
0.04468,0.02234,538.778959,-538.773735,0.16,0,98.3181245,2.11021119e-05,8584
0.04484,0.02242,540.604226,-540.604209,0.16,0,98.5222044,2.07879834e-05,8584
0.045,0.0225,542.435608,-542.434351,0.16,0,98.7510979,2.00368787e-05,8584
0.04516,0.02258,544.261016,-544.260978,0.16,0,98.9495099,2.12644815e-05,8584
0.04532,0.02266,546.089991,-546.089571,0.16,0,99.1444294,2.03075879e-05,8584
0.04548,0.02274,547.926897,-547.919649,0.32,0,99.3608987,1.87674594e-05,8584
0.04564,0.02282,549.751384,-549.750773,0.16,0,99.8042703,1.86611685e-05,8752
0.0458,0.0229,551.582562,-551.575516,0.16,0,100.021972,1.98372258e-05,8752
0.04596,0.02298,553.407424,-553.407805,0.16,0,100.245619,1.95572707e-05,8752
0.04612,0.02306,555.240398,-555.230827,0.16,0,100.456243,1.99481156e-05,8752
0.04628,0.02314,557.060913,-557.060557,0.16,0,100.682278,1.97565122e-05,8752
0.04644,0.02322,558.891978,-558.889194,0.32,0,100.907878,1.74009961e-05,8752
0.0466,0.0233,560.723961,-560.717425,0.16,0,101.366187,1.9659386e-05,8920
0.04676,0.02338,562.546108,-562.543057,0.16,0,101.56904,2.01347358e-05,8920
0.04692,0.02346,564.371939,-564.368843,0.16,0,101.790146,1.97281316e-05,8920
0.04708,0.02354,566.199653,-566.194936,0.16,0,101.992697,1.88250384e-05,8920
0.04724,0.02362,568.023589,-568.022914,0.16,0,102.197473,1.96800422e-05,8920
0.0474,0.0237,569.853041,-569.846166,0.32,0,102.412028,2.00419681e-05,8920
0.04756,0.02378,571.678998,-571.672848,0.16,0,102.884059,2.10682666e-05,9076
0.04772,0.02386,573.507673,-573.502218,0.16,0,103.089298,2.00045651e-05,9076
0.04788,0.02394,575.338744,-575.331338,0.16,0,103.290794,2.06544565e-05,9076
0.04804,0.02402,577.160319,-577.155839,0.16,0,103.496951,2.13148139e-05,9076
0.0482,0.0241,578.989091,-578.982977,0.16,0,103.709571,2.08716617e-05,9076
0.04836,0.02418,580.812014,-580.806009,0.32,0,103.90441,2.08723218e-05,9076
0.04852,0.02426,582.641056,-582.637945,0.16,0,104.367296,1.98447103e-05,9232
0.04868,0.02434,584.469379,-584.463264,0.16,0,104.586585,2.07260638e-05,9232
0.04884,0.02442,586.294982,-586.294136,0.16,0,104.795888,2.0312315e-05,9232
0.049,0.0245,588.120143,-588.118767,0.16,0,105.013946,1.91872975e-05,9232
0.04916,0.02458,589.944312,-589.941461,0.16,0,105.214752,2.04073564e-05,9232
0.04932,0.02466,591.760675,-591.761935,0.32,0,105.426176,2.05463072e-05,9232
0.04948,0.02474,593.586506,-593.584112,0.16,0,105.927648,2.07235197e-05,9388
0.04964,0.02482,595.410994,-595.405831,0.16,0,106.139067,1.86513876e-05,9388
0.0498,0.0249,597.229136,-597.230226,0.16,0,106.340544,1.9158158e-05,9388
0.04996,0.02498,599.058525,-599.054811,0.16,0,106.550503,1.86004652e-05,9388
0.05012,0.02506,600.874886,-600.877667,0.16,0,106.770922,2.0825878e-05,9388
0.05028,0.02514,602.706888,-602.70199,0.32,0,106.98559,1.85685551e-05,9388
0.05044,0.02522,604.52128,-604.519588,0.16,0,107.462932,2.23314293e-05,9544
0.0506,0.0253,606.346781,-606.338334,0.16,0,107.687657,2.1553528e-05,9544
0.05076,0.02538,608.169603,-608.162069,0.16,0,107.89207,2.08008765e-05,9544
0.05092,0.02546,609.985116,-609.983177,0.16,0,108.096181,2.02476049e-05,9544
0.05108,0.02554,611.81992,-611.807385,0.16,0,108.291632,1.99564124e-05,9544
0.05124,0.02562,613.643052,-613.628128,0.32,0,108.492118,2.15209135e-05,9544
0.0514,0.0257,615.456861,-615.451571,0.16,0,108.938218,2.28397835e-05,9694
0.05156,0.02578,617.272576,-617.270428,0.16,0,109.145468,2.04647037e-05,9694
0.05172,0.02586,619.099636,-619.089693,0.16,0,109.369854,2.21301781e-05,9694
0.05188,0.02594,620.911649,-620.908189,0.16,0,109.586883,2.15988094e-05,9694
0.05204,0.02602,622.736676,-622.73249,0.16,0,109.806449,1.91247449e-05,9694
0.0522,0.0261,624.558737,-624.554861,0.32,0,110.030394,2.08156122e-05,9694
0.05236,0.02618,626.385765,-626.375001,0.16,0,110.511059,2.13870288e-05,9838
0.05252,0.02626,628.201288,-628.198284,0.16,0,110.720934,1.84520611e-05,9838
0.05268,0.02634,630.034091,-630.022421,0.16,0,110.939204,1.93910343e-05,9838
0.05284,0.02642,631.851624,-631.844809,0.16,0,111.161205,1.94440916e-05,9838
0.053,0.0265,633.679434,-633.666748,0.16,0,111.36528,2.13643078e-05,9838
0.05316,0.02658,635.494408,-635.487165,0.32,0,111.570601,2.10036473e-05,9838
0.05332,0.02666,637.321151,-637.309892,0.16,0,111.999437,1.99144013e-05,9982
0.05348,0.02674,639.141195,-639.131771,0.16,0,112.199919,1.97378555e-05,9982
0.05364,0.02682,640.970531,-640.955816,0.16,0,112.417799,1.95167454e-05,9982
0.0538,0.0269,642.789566,-642.780927,0.16,0,112.63242,1.86638318e-05,9982
0.05396,0.02698,644.612288,-644.603167,0.16,0,112.824105,1.82685578e-05,9982
0.05412,0.02706,646.430365,-646.427329,0.32,0,113.029852,1.92892396e-05,9982
0.05428,0.02714,648.254238,-648.248785,0.16,0,113.46591,1.84063471e-05,10126
0.05444,0.02722,650.077598,-650.064918,0.16,0,113.673812,2.10749108e-05,10126
0.0546,0.0273,651.89249,-651.884823,0.16,0,113.884319,1.86327224e-05,10126
0.05476,0.02738,653.715417,-653.704202,0.16,0,114.097357,1.85724718e-05,10126
0.05492,0.02746,655.524374,-655.520511,0.16,0,114.30355,2.08043388e-05,10126
0.05508,0.02754,657.342087,-657.336127,0.32,0,114.507693,1.96245838e-05,10126
