# ADR90 WP-A2 tau=0 band, build 6726f5e24d385bfe26b743fd90490c3b280a0eed (expected any), leg h1.0_e0.6944
s_m,s_over_B,q_foot_kPa,q_base_kPa,ds_mm,relaxed,wall_s,implex_err_avg,implex_refusals,guard_floor,guard_f0,guard_hold,guard_res,guard_ctlf,substeps_tot,substeps_max,substeps_max_ele,substeps_ring_tot,substeps_ring_max,wall_step_s
2e-05,1e-05,0.785411966,-0.788336654,0.02,0,0.172714472,0,0,0,0,0,0,0,0,0,0,0,0,0.172714472
4e-05,2e-05,1.55409315,-1.56179354,0.02,1,1.08480954,0,0,0,0,0,0,0,0,0,0,0,0,0.91209507
6e-05,3e-05,2.26598724,-2.26789344,0.02,0,1.44539618,0,0,0,0,0,0,0,0,0,0,0,0,0.360586643
8e-05,4e-05,2.9806528,-2.98174112,0.02,0,1.87635303,0,0,0,0,0,0,0,0,0,0,0,0,0.430956841
0.0001,5e-05,3.68195453,-3.68328906,0.02,0,2.5383358,0,0,0,0,0,0,0,0,0,0,0,0,0.661982775
0.00012,6e-05,4.3720062,-4.373802,0.04,0,3.21358657,0,0,0,0,0,0,0,0,0,0,0,0,0.675250769
0.00016,8e-05,5.70721476,-5.71292974,0.04,0,3.71421409,0,0,0,0,0,0,0,0,0,0,0,0,0.500627518
0.0002,0.0001,7.01105171,-7.01849156,0.04,0,4.25496745,0,0,0,0,0,0,0,0,0,0,0,0,0.540753365
0.00024,0.00012,8.29068227,-8.29850812,0.04,0,4.88349771,0,0,0,0,0,0,0,0,0,0,0,0,0.628530264
0.00028,0.00014,9.54695739,-9.56133044,0.04,0,5.52715683,0,0,0,0,0,0,0,0,0,0,0,0,0.643659115
0.00032,0.00016,10.7854231,-10.8025926,0.04,0,6.17259598,0,0,0,0,0,0,0,0,0,0,0,0,0.645439148
0.00036,0.00018,12.0069239,-12.0240264,0.08,0,6.68437958,0,0,0,0,0,0,0,0,0,0,0,0,0.5117836
0.00044,0.00022,14.4980152,-14.5428599,0.08,1,9.16534734,0,0,0,0,0,0,0,0,0,0,0,0,2.48096776
0.00052,0.00026,16.6868848,-16.6993246,0.08,0,10.3341589,0,0,0,0,0,0,0,0,0,0,0,0,1.16881156
0.00056,0.00028,17.8519371,-17.852355,0.04,0,13.9816864,0,0,0,0,0,0,0,0,0,0,0,0,3.64752746
0.0006,0.0003,19.0017795,-19.0028039,0.04,0,15.666496,0,0,0,0,0,0,0,0,0,0,0,0,1.68480968
0.00064,0.00032,20.1425873,-20.1438612,0.04,0,16.9905131,0,0,0,0,0,0,0,0,0,0,0,0,1.32401705
0.00068,0.00034,21.2744103,-21.2761661,0.04,0,17.88187,0,0,0,0,0,0,0,0,0,0,0,0,0.891356945
0.00072,0.00036,22.3985468,-22.3999179,0.04,0,18.503499,0,0,0,0,0,0,0,0,0,0,0,0,0.621629
0.00076,0.00038,23.5144628,-23.5164426,0.08,0,19.3150165,0,0,0,0,0,0,0,0,0,0,0,0,0.811517477
0.00077,0.000385,23.7923791,-23.7978163,0.01,0,23.3493299,0,0,0,0,0,0,0,0,0,0,0,0,4.03431344
0.00078,0.00039,24.0717978,-24.0785433,0.01,0,23.7677329,0,0,0,0,0,0,0,0,0,0,0,0,0.41840291
0.00079,0.000395,24.3506208,-24.3574849,0.01,0,24.470387,0,0,0,0,0,0,0,0,0,0,0,0,0.702654123
0.0008,0.0004,24.6295137,-24.6363303,0.01,0,25.0842497,0,0,0,0,0,0,0,0,0,0,0,0,0.613862753
0.00081,0.000405,24.9075228,-24.9143385,0.01,0,26.0376244,0,0,0,0,0,0,0,0,0,0,0,0,0.953374624
0.00082,0.00041,25.1855513,-25.1923515,0.02,0,26.8288124,0,0,0,0,0,0,0,0,0,0,0,0,0.791188002
0.00084,0.00042,25.7377855,-25.7457003,0.02,0,27.418004,0,0,0,0,0,0,0,0,0,0,0,0,0.589191675
0.00086,0.00043,26.2895577,-26.2970269,0.02,0,28.3427284,0,0,0,0,0,0,0,0,0,0,0,0,0.92472434
0.00088,0.00044,26.8393967,-26.8468386,0.02,0,29.4082119,0,0,0,0,0,0,0,0,0,0,0,0,1.06548357
0.0009,0.00045,27.3876431,-27.395054,0.02,0,29.9959335,0,0,0,0,0,0,0,0,0,0,0,0,0.587721586
0.00092,0.00046,27.9338933,-27.9417958,0.02,0,30.5595162,0,0,0,0,0,0,0,0,0,0,0,0,0.563582659
0.00094,0.00047,28.4792549,-28.4864893,0.04,0,31.4631784,0,0,0,0,0,0,0,0,0,0,0,0,0.903662205
0.00098,0.00049,29.5626682,-29.565024,0.04,0,32.6423101,0,0,0,0,0,0,0,0,0,0,0,0,1.17913175
0.00102,0.00051,30.6377439,-30.6425772,0.04,0,33.6353679,0,0,0,0,0,0,0,0,0,0,0,0,0.993057728
0.00106,0.00053,31.7101998,-31.7119514,0.04,0,34.9361234,0,0,0,0,0,0,0,0,0,0,0,0,1.3007555
0.0011,0.00055,32.7778809,-32.7782265,0.04,0,36.5508828,0,0,0,0,0,0,0,0,0,0,0,0,1.61475945
0.00114,0.00057,33.8409161,-33.8394332,0.04,0,37.9721701,0,0,0,0,0,0,0,0,0,0,0,0,1.4212873
0.00116,0.00058,34.360853,-34.3754617,0.02,0,41.0063148,0,0,0,0,0,0,0,0,0,0,0,0,3.03414464
0.00118,0.00059,34.8919292,-34.90528,0.02,0,41.5705669,0,0,0,0,0,0,0,0,0,0,0,0,0.564252138
0.0012,0.0006,35.4206217,-35.4326075,0.02,0,42.2586753,0,0,0,0,0,0,0,0,0,0,0,0,0.688108444
0.00122,0.00061,35.9496682,-35.9590254,0.02,0,42.9166362,0,0,0,0,0,0,0,0,0,0,0,0,0.657960892
0.00124,0.00062,36.4746441,-36.4866664,0.02,0,43.3593607,0,0,0,0,0,0,0,0,0,0,0,0,0.442724466
0.00126,0.00063,37.0005029,-37.0123416,0.04,0,43.7612462,0,0,0,0,0,0,0,0,0,0,0,0,0.401885509
0.0013,0.00065,38.0517125,-38.0527299,0.04,0,44.6343408,0,0,0,0,0,0,0,0,0,0,0,0,0.873094559
0.00132,0.00066,38.5765532,-38.5765895,0.02,0,46.7014689,0,0,0,0,0,0,0,0,0,0,0,0,2.06712818
0.00134,0.00067,39.0988875,-39.0984349,0.02,0,47.5340829,0,0,0,0,0,0,0,0,0,0,0,0,0.832613945
0.00136,0.00068,39.6112195,-39.6280351,0.02,0,48.4113281,0,0,0,0,0,0,0,0,0,0,0,0,0.877245188
0.00138,0.00069,40.1280258,-40.1469105,0.02,0,49.1744688,0,0,0,0,0,0,0,0,0,0,0,0,0.763140678
0.0014,0.0007,40.6585361,-40.6586477,0.02,0,49.9281342,0,0,0,0,0,0,0,0,0,0,0,0,0.753665447
0.00142,0.00071,41.1664291,-41.1843478,0.04,0,50.4308212,0,0,0,0,0,0,0,0,0,0,0,0,0.502686977
0.00146,0.00073,42.205766,-42.2073949,0.04,0,51.3049662,0,0,0,0,0,0,0,0,0,0,0,0,0.874145031
0.0015,0.00075,43.2357062,-43.2336793,0.04,0,52.4904351,0,0,0,0,0,0,0,0,0,0,0,0,1.18546891
0.00152,0.00076,43.7383926,-43.7568288,0.02,0,54.1226227,0,0,0,0,0,0,0,0,0,0,0,0,1.6321876
0.00154,0.00077,44.2626521,-44.2628989,0.02,0,54.8061433,0,0,0,0,0,0,0,0,0,0,0,0,0.683520555
0.00156,0.00078,44.7759644,-44.776296,0.02,0,55.6289024,0,0,0,0,0,0,0,0,0,0,0,0,0.822759151
0.00158,0.00079,45.2882633,-45.2885241,0.02,0,56.510958,0,0,0,0,0,0,0,0,0,0,0,0,0.882055521
0.0016,0.0008,45.7997099,-45.799867,0.02,0,57.2564526,0,0,0,0,0,0,0,0,0,0,0,0,0.745494604
0.00162,0.00081,46.3102947,-46.3106001,0.04,0,58.1112001,0,0,0,0,0,0,0,0,0,0,0,0,0.854747534
0.00166,0.00083,47.319369,-47.3288849,0.04,0,59.2678413,0,0,0,0,0,0,0,0,0,0,0,0,1.15664124
0.00168,0.00084,47.8236778,-47.838579,0.02,0,61.1219628,0,0,0,0,0,0,0,0,0,0,0,0,1.85412145
0.0017,0.00085,48.3322905,-48.3476646,0.02,0,61.7695172,0,0,0,0,0,0,0,0,0,0,0,0,0.647554398
0.00172,0.00086,48.8474554,-48.8477007,0.02,0,62.6610632,0,0,0,0,0,0,0,0,0,0,0,0,0.891546011
0.00174,0.00087,49.3549012,-49.3552627,0.02,0,63.4441011,0,0,0,0,0,0,0,0,0,0,0,0,0.783037901
0.00176,0.00088,49.8611734,-49.8615495,0.02,0,64.2796216,0,0,0,0,0,0,0,0,0,0,0,0,0.835520506
0.00178,0.00089,50.3663844,-50.3666283,0.04,0,65.378552,0,0,0,0,0,0,0,0,0,0,0,0,1.09893036
0.00182,0.00091,51.372448,-51.3774554,0.04,0,66.4538646,0,0,0,0,0,0,0,0,0,0,0,0,1.07531261
0.00186,0.00093,52.418333,-52.4548756,0.04,1,68.4602332,0,0,0,0,0,0,0,0,0,0,0,0,2.00636864
0.0019,0.00095,53.3759414,-53.3745963,0.04,0,69.7163692,0,0,0,0,0,0,0,0,0,0,0,0,1.25613594
0.00194,0.00097,54.3742474,-54.3744723,0.04,0,70.9141049,0,0,0,0,0,0,0,0,0,0,0,0,1.19773579
0.00198,0.00099,55.3697844,-55.3716823,0.04,0,72.3513825,0,0,0,0,0,0,0,0,0,0,0,0,1.43727756
0.00202,0.00101,56.3648209,-56.3663975,0.08,0,74.4668348,0,0,0,0,0,0,0,0,0,0,0,0,2.11545229
0.00206,0.00103,57.3588111,-57.3596274,0.04,0,80.667423,0,0,0,0,0,0,0,0,0,0,0,0,6.20058823
0.00208,0.00104,57.8563792,-57.8561796,0.02,0,82.6556399,0,0,0,0,0,0,0,0,0,0,0,0,1.98821688
0.0021,0.00105,58.3525675,-58.3531323,0.02,0,83.6682351,0,0,0,0,0,0,0,0,0,0,0,0,1.01259518
0.00212,0.00106,58.8485091,-58.8490361,0.02,0,84.5588005,0,0,0,0,0,0,0,0,0,0,0,0,0.890565395
0.00214,0.00107,59.3439089,-59.3444429,0.02,0,85.369772,0,0,0,0,0,0,0,0,0,0,0,0,0.810971498
0.00216,0.00108,59.8388138,-59.8393992,0.02,0,86.2021768,0,0,0,0,0,0,0,0,0,0,0,0,0.832404852
0.00218,0.00109,60.3332705,-60.3338384,0.04,0,87.4213247,0,0,0,0,0,0,0,0,0,0,0,0,1.21914792
0.00222,0.00111,61.3205313,-61.3174423,0.04,0,89.5742378,0,0,0,0,0,0,0,0,0,0,0,0,2.15291309
0.00226,0.00113,62.300715,-62.2998468,0.04,0,91.6998744,0,0,0,0,0,0,0,0,0,0,0,0,2.12563658
0.0023,0.00115,63.2847677,-63.2855512,0.04,0,92.9277565,0,0,0,0,0,0,0,0,0,0,0,0,1.22788215
0.00234,0.00117,64.2649241,-64.2650682,0.04,0,94.0093684,0,0,0,0,0,0,0,0,0,0,0,0,1.08161187
0.00238,0.00119,65.2416416,-65.2412378,0.04,0,95.1355414,0,0,0,0,0,0,0,0,0,0,0,0,1.12617302
0.00242,0.00121,66.2179122,-66.2177927,0.08,0,96.1846409,0,0,0,0,0,0,0,0,0,0,0,0,1.04909945
0.00246,0.00123,67.193945,-67.1917194,0.04,0,99.2299366,0,0,0,0,0,0,0,0,0,0,0,0,3.04529572
0.0025,0.00125,68.1665798,-68.1664841,0.04,0,100.29648,0,0,0,0,0,0,0,0,0,0,0,0,1.0665431
0.00254,0.00127,69.1391892,-69.1384178,0.04,0,101.346419,0,0,0,0,0,0,0,0,0,0,0,0,1.04993963
0.00258,0.00129,70.1110568,-70.1087651,0.04,0,102.6363,0,0,0,0,0,0,0,0,0,0,0,0,1.28988051
0.00262,0.00131,71.0804786,-71.0788269,0.04,0,103.94948,0,0,0,0,0,0,0,0,0,0,0,0,1.31318045
0.00266,0.00133,72.0492394,-72.0473011,0.08,0,105.194995,0,0,0,0,0,0,0,0,0,0,0,0,1.24551487
0.0027,0.00135,73.0150554,-73.015452,0.04,0,108.258497,0,0,0,0,0,0,0,0,0,0,0,0,3.06350183
0.00274,0.00137,73.9802413,-73.9803445,0.04,0,109.967291,0,0,0,0,0,0,0,0,0,0,0,0,1.70879364
0.00278,0.00139,74.9436215,-74.944982,0.04,0,111.422449,0,0,0,0,0,0,0,0,0,0,0,0,1.455158
0.00282,0.00141,75.9079058,-75.9081318,0.04,0,112.678274,0,0,0,0,0,0,0,0,0,0,0,0,1.25582552
0.00286,0.00143,76.8701796,-76.8704981,0.04,0,113.908172,0,0,0,0,0,0,0,0,0,0,0,0,1.2298975
0.0029,0.00145,77.8295718,-77.830688,0.08,0,115.084649,0,0,0,0,0,0,0,0,0,0,0,0,1.17647743
0.00294,0.00147,78.7903162,-78.7913229,0.04,0,118.470702,0,0,0,0,0,0,0,0,0,0,0,0,3.38605309
0.00298,0.00149,79.749855,-79.7502466,0.04,0,120.080526,0,0,0,0,0,0,0,0,0,0,0,0,1.60982394
0.00302,0.00151,80.7080707,-80.7094802,0.04,0,121.231169,0,0,0,0,0,0,0,0,0,0,0,0,1.15064287
0.00306,0.00153,81.6564307,-81.6675778,0.04,0,122.432344,0,0,0,0,0,0,0,0,0,0,0,0,1.20117545
0.0031,0.00155,82.6184621,-82.6202858,0.04,0,123.746449,0,0,0,0,0,0,0,0,0,0,0,0,1.31410503
0.00314,0.00157,83.5739051,-83.5743855,0.08,0,125.327405,0,0,0,0,0,0,0,0,0,0,0,0,1.58095574
0.00318,0.00159,84.5280822,-84.5288782,0.04,0,129.343955,0,0,0,0,0,0,0,0,0,0,0,0,4.01654983
0.00322,0.00161,85.4812177,-85.481582,0.04,0,131.03173,0,0,0,0,0,0,0,0,0,0,0,0,1.6877749
0.00326,0.00163,86.4322557,-86.433356,0.04,0,132.640746,0,0,0,0,0,0,0,0,0,0,0,0,1.60901594
0.0033,0.00165,87.3828751,-87.3838972,0.04,0,134.63139,0,0,0,0,0,0,0,0,0,0,0,0,1.99064422
0.00334,0.00167,88.3328656,-88.3338818,0.04,0,135.83285,0,0,0,0,0,0,0,0,0,0,0,0,1.20145988
0.00338,0.00169,89.2808757,-89.284658,0.08,0,136.939445,0,0,0,0,0,0,0,0,0,0,0,0,1.1065948
0.00342,0.00171,90.2323737,-90.2323606,0.04,0,139.458959,0,0,0,0,0,0,0,0,0,0,0,0,2.51951456
0.00346,0.00173,91.1773628,-91.1777323,0.04,0,140.930338,0,0,0,0,0,0,0,0,0,0,0,0,1.47137904
0.0035,0.00175,92.1224701,-92.1258792,0.04,0,141.739496,0,0,0,0,0,0,0,0,0,0,0,0,0.809157848
0.00354,0.00177,93.0699237,-93.0706829,0.04,0,142.622429,0,0,0,0,0,0,0,0,0,0,0,0,0.88293314
0.00358,0.00179,94.0160542,-94.0152026,0.04,0,143.550388,0,0,0,0,0,0,0,0,0,0,0,0,0.927958488
0.00362,0.00181,94.9590453,-94.9585841,0.08,0,144.627886,0,0,0,0,0,0,0,0,0,0,0,0,1.07749772
0.00366,0.00183,95.9026144,-95.9023342,0.04,0,148.081692,0,0,0,0,0,0,0,0,0,0,0,0,3.4538064
0.0037,0.00185,96.8502541,-96.8450682,0.04,0,149.405263,0,0,0,0,0,0,0,0,0,0,0,0,1.32357144
0.00374,0.00187,97.7858728,-97.7857357,0.04,0,150.551728,0,0,0,0,0,0,0,0,0,0,0,0,1.14646482
0.00378,0.00189,98.72739,-98.7287694,0.04,0,152.612749,0,0,0,0,0,0,0,0,0,0,0,0,2.06102109
0.00382,0.00191,99.6700194,-99.6680877,0.04,0,155.089173,0,0,0,0,0,0,0,0,0,0,0,0,2.47642398
0.00386,0.00193,100.608066,-100.606844,0.08,0,156.555776,0,0,0,0,0,0,0,0,0,0,0,0,1.46660256
0.0039,0.00195,101.547228,-101.54666,0.04,0,163.536114,0,0,0,0,0,0,0,0,0,0,0,0,6.98033834
0.00392,0.00196,102.017093,-102.017106,0.02,0,167.65642,0,0,0,0,0,0,0,0,0,0,0,0,4.12030625
0.00394,0.00197,102.487457,-102.487459,0.02,0,168.413854,0,0,0,0,0,0,0,0,0,0,0,0,0.757433891
0.00396,0.00198,102.957432,-102.957347,0.02,0,169.465727,0,0,0,0,0,0,0,0,0,0,0,0,1.05187225
0.00398,0.00199,103.42648,-103.426469,0.02,0,170.199445,0,0,0,0,0,0,0,0,0,0,0,0,0.733718872
0.004,0.002,103.896298,-103.896214,0.02,0,171.258794,0,0,0,0,0,0,0,0,0,0,0,0,1.05934882
0.00402,0.00201,104.365672,-104.36555,0.04,0,172.671642,0,0,0,0,0,0,0,0,0,0,0,0,1.41284776
0.00406,0.00203,105.301864,-105.303027,0.04,0,174.50717,0,0,0,0,0,0,0,0,0,0,0,0,1.83552837
0.0041,0.00205,106.232329,-106.242147,0.04,0,176.621927,0,0,0,0,0,0,0,0,0,0,0,0,2.11475611
0.00412,0.00206,106.706001,-106.706001,0.02,0,180.303504,0,0,0,0,0,0,0,0,0,0,0,0,3.68157744
0.00414,0.00207,107.174618,-107.17452,0.02,0,181.383342,0,0,0,0,0,0,0,0,0,0,0,0,1.07983828
0.00416,0.00208,107.642776,-107.642739,0.02,0,182.32036,0,0,0,0,0,0,0,0,0,0,0,0,0.937017679
0.00418,0.00209,108.110541,-108.110759,0.02,0,183.188138,0,0,0,0,0,0,0,0,0,0,0,0,0.867778063
0.0042,0.0021,108.578446,-108.57868,0.02,0,184.556413,0,0,0,0,0,0,0,0,0,0,0,0,1.3682754
0.00422,0.00211,109.046486,-109.046561,0.04,0,185.703853,0,0,0,0,0,0,0,0,0,0,0,0,1.14743972
0.00424,0.00212,109.514294,-109.514171,0.02,0,188.889524,0,0,0,0,0,0,0,0,0,0,0,0,3.18567133
0.00426,0.00213,109.981257,-109.981459,0.02,0,189.845443,0,0,0,0,0,0,0,0,0,0,0,0,0.955918074
0.00428,0.00214,110.448561,-110.448799,0.02,0,191.301987,0,0,0,0,0,0,0,0,0,0,0,0,1.4565444
0.0043,0.00215,110.915917,-110.915973,0.02,0,192.182479,0,0,0,0,0,0,0,0,0,0,0,0,0.880491972
0.00432,0.00216,111.382992,-111.383199,0.02,0,193.621844,0,0,0,0,0,0,0,0,0,0,0,0,1.43936539
0.00434,0.00217,111.84976,-111.850128,0.04,0,195.245694,0,0,0,0,0,0,0,0,0,0,0,0,1.62385011
0.00436,0.00218,112.316766,-112.316994,0.02,0,198.538321,0,0,0,0,0,0,0,0,0,0,0,0,3.2926271
0.00438,0.00219,112.783148,-112.783663,0.02,0,199.435979,0,0,0,0,0,0,0,0,0,0,0,0,0.897657156
0.0044,0.0022,113.24989,-113.250169,0.02,0,200.581542,0,0,0,0,0,0,0,0,0,0,0,0,1.14556384
0.00442,0.00221,113.716731,-113.716641,0.02,0,202.089452,0,0,0,0,0,0,0,0,0,0,0,0,1.5079093
0.00444,0.00222,114.182954,-114.182915,0.02,0,202.954809,0,0,0,0,0,0,0,0,0,0,0,0,0.865357161
0.00446,0.00223,114.648308,-114.648626,0.04,0,204.085355,0,0,0,0,0,0,0,0,0,0,0,0,1.13054609
0.00448,0.00224,115.114629,-115.114647,0.02,0,206.512279,0,0,0,0,0,0,0,0,0,0,0,0,2.42692351
0.0045,0.00225,115.58063,-115.580625,0.02,0,207.261791,0,0,0,0,0,0,0,0,0,0,0,0,0.749512672
0.00452,0.00226,116.046221,-116.04639,0.02,0,207.98017,0,0,0,0,0,0,0,0,0,0,0,0,0.718378544
0.00454,0.00227,116.511919,-116.512071,0.02,0,208.905437,0,0,0,0,0,0,0,0,0,0,0,0,0.925266981
0.00456,0.00228,116.977289,-116.977452,0.02,0,209.712891,0,0,0,0,0,0,0,0,0,0,0,0,0.807454586
0.00458,0.00229,117.442765,-117.442952,0.04,0,210.605519,0,0,0,0,0,0,0,0,0,0,0,0,0.892627716
0.00462,0.00231,118.373643,-118.372504,0.04,0,212.458456,0,0,0,0,0,0,0,0,0,0,0,0,1.85293651
0.00464,0.00232,118.836853,-118.837032,0.02,0,214.179354,0,0,0,0,0,0,0,0,0,0,0,0,1.72089839
0.00466,0.00233,119.301811,-119.301988,0.02,0,215.888433,0,0,0,0,0,0,0,0,0,0,0,0,1.70907903
0.00468,0.00234,119.766551,-119.76673,0.02,0,216.965664,0,0,0,0,0,0,0,0,0,0,0,0,1.07723069
0.0047,0.00235,120.231274,-120.231293,0.02,0,218.07101,0,0,0,0,0,0,0,0,0,0,0,0,1.10534596
0.00472,0.00236,120.695763,-120.695874,0.02,0,219.077749,0,0,0,0,0,0,0,0,0,0,0,0,1.00673985
0.00474,0.00237,121.160125,-121.16032,0.04,0,220.373131,0,0,0,0,0,0,0,0,0,0,0,0,1.29538131
0.00476,0.00238,121.624535,-121.624564,0.02,0,223.061815,0,0,0,0,0,0,0,0,0,0,0,0,2.68868375
0.00478,0.00239,122.08866,-122.088835,0.02,0,224.315754,0,0,0,0,0,0,0,0,0,0,0,0,1.25393939
0.0048,0.0024,122.552797,-122.552889,0.02,0,226.202618,0,0,0,0,0,0,0,0,0,0,0,0,1.88686442
0.00482,0.00241,123.016717,-123.017005,0.02,0,227.638842,0,0,0,0,0,0,0,0,0,0,0,0,1.43622351
0.00484,0.00242,123.480657,-123.480755,0.02,0,228.653207,0,0,0,0,0,0,0,0,0,0,0,0,1.0143652
0.00486,0.00243,123.944374,-123.944569,0.04,0,229.85129,0,0,0,0,0,0,0,0,0,0,0,0,1.19808292
0.0049,0.00245,125.455062,-125.394349,0.04,1,232.599972,0,0,0,0,0,0,0,0,0,0,0,0,2.7486825
0.00492,0.00246,125.330719,-125.334732,0.02,0,235.798238,0,0,0,0,0,0,0,0,0,0,0,0,3.19826555
0.00494,0.00247,125.799328,-125.800997,0.02,0,237.321191,0,0,0,0,0,0,0,0,0,0,0,0,1.52295327
0.00496,0.00248,126.269376,-126.271444,0.02,0,239.056062,0,0,0,0,0,0,0,0,0,0,0,0,1.7348702
0.00498,0.00249,126.741057,-126.742516,0.02,0,240.406501,0,0,0,0,0,0,0,0,0,0,0,0,1.35043931
0.005,0.0025,127.212209,-127.213367,0.02,0,241.630951,0,0,0,0,0,0,0,0,0,0,0,0,1.22445011
0.00502,0.00251,127.682929,-127.684098,0.04,0,243.619452,0,0,0,0,0,0,0,0,0,0,0,0,1.98850107
0.00504,0.00252,128.153158,-128.154607,0.02,0,247.024794,0,0,0,0,0,0,0,0,0,0,0,0,3.40534186
0.00506,0.00253,128.623504,-128.62467,0.02,0,247.789258,0,0,0,0,0,0,0,0,0,0,0,0,0.764464617
0.00508,0.00254,129.093364,-129.094503,0.02,0,248.566245,0,0,0,0,0,0,0,0,0,0,0,0,0.776986122
0.0051,0.00255,129.562984,-129.564013,0.02,0,249.336318,0,0,0,0,0,0,0,0,0,0,0,0,0.770073414
0.00512,0.00256,130.032264,-130.033283,0.02,0,250.042798,0,0,0,0,0,0,0,0,0,0,0,0,0.706479788
0.00514,0.00257,130.501117,-130.502376,0.04,0,251.04011,0,0,0,0,0,0,0,0,0,0,0,0,0.997312546
0.00518,0.00259,132.070051,-132.012725,0.04,1,254.978689,0,0,0,0,0,0,0,0,0,0,0,0,3.93857837
0.00522,0.00261,132.369497,-132.370083,0.04,0,256.857548,0,0,0,0,0,0,0,0,0,0,0,0,1.87885952
0.00524,0.00262,132.83849,-132.839775,0.02,0,259.745959,0,0,0,0,0,0,0,0,0,0,0,0,2.88841081
0.00526,0.00263,133.307166,-133.308486,0.02,0,260.695327,0,0,0,0,0,0,0,0,0,0,0,0,0.949367762
0.00528,0.00264,133.774942,-133.776254,0.02,0,261.438374,0,0,0,0,0,0,0,0,0,0,0,0,0.743046761
0.0053,0.00265,134.242165,-134.243526,0.02,0,262.372483,0,0,0,0,0,0,0,0,0,0,0,0,0.934109449
0.00532,0.00266,134.70919,-134.710303,0.02,0,263.021572,0,0,0,0,0,0,0,0,0,0,0,0,0.64908886
0.00534,0.00267,135.176074,-135.176983,0.04,0,263.96858,0,0,0,0,0,0,0,0,0,0,0,0,0.947007895
0.00538,0.00269,136.107949,-136.107059,0.04,0,266.15855,0,0,0,0,0,0,0,0,0,0,0,0,2.18997002
0.00542,0.00271,137.372539,-137.369477,0.04,1,269.628832,0,0,0,0,0,0,0,0,0,0,0,0,3.47028255
0.00544,0.00272,137.499287,-137.501303,0.02,0,272.374842,0,0,0,0,0,0,0,0,0,0,0,0,2.74600935
0.00546,0.00273,137.966216,-137.967731,0.02,0,273.520905,0,0,0,0,0,0,0,0,0,0,0,0,1.14606309
0.00548,0.00274,138.432691,-138.434241,0.02,0,274.235309,0,0,0,0,0,0,0,0,0,0,0,0,0.714404345
0.0055,0.00275,138.898508,-138.900247,0.02,0,275.116538,0,0,0,0,0,0,0,0,0,0,0,0,0.881228685
0.00552,0.00276,139.364266,-139.365188,0.02,0,276.178224,0,0,0,0,0,0,0,0,0,0,0,0,1.06168652
0.00554,0.00277,139.829088,-139.829881,0.04,0,277.288542,0,0,0,0,0,0,0,0,0,0,0,0,1.11031771
0.00558,0.00279,140.760855,-140.760873,0.04,0,280.371094,0,0,0,0,0,0,0,0,0,0,0,0,3.08255148
0.0056,0.0028,141.221131,-141.222608,0.02,0,282.969994,0,0,0,0,0,0,0,0,0,0,0,0,2.59890056
0.00562,0.00281,141.685553,-141.686694,0.02,0,284.257633,0,0,0,0,0,0,0,0,0,0,0,0,1.2876389
0.00564,0.00282,142.149618,-142.150602,0.02,0,285.507881,0,0,0,0,0,0,0,0,0,0,0,0,1.25024772
0.00566,0.00283,142.613388,-142.614198,0.02,0,286.569197,0,0,0,0,0,0,0,0,0,0,0,0,1.06131649
0.00568,0.00284,143.077086,-143.077899,0.02,0,287.717965,0,0,0,0,0,0,0,0,0,0,0,0,1.14876819
0.0057,0.00285,143.540894,-143.541706,0.04,0,288.945161,0,0,0,0,0,0,0,0,0,0,0,0,1.22719574
0.00574,0.00287,144.460895,-144.464854,0.04,0,291.372574,0,0,0,0,0,0,0,0,0,0,0,0,2.42741299
0.00578,0.00289,145.396676,-145.400589,0.04,0,293.115111,0,0,0,0,0,0,0,0,0,0,0,0,1.74253654
0.0058,0.0029,145.853711,-145.855175,0.02,0,297.057285,0,0,0,0,0,0,0,0,0,0,0,0,3.9421742
0.00582,0.00291,146.316985,-146.318007,0.02,0,297.901371,0,0,0,0,0,0,0,0,0,0,0,0,0.844086409
0.00584,0.00292,146.779652,-146.781065,0.02,0,298.803899,0,0,0,0,0,0,0,0,0,0,0,0,0.902528048
0.00586,0.00293,147.242516,-147.243548,0.02,0,299.503406,0,0,0,0,0,0,0,0,0,0,0,0,0.69950676
0.00588,0.00294,147.705158,-147.706191,0.02,0,300.250066,0,0,0,0,0,0,0,0,0,0,0,0,0.746659517
0.0059,0.00295,148.167597,-148.168573,0.04,0,301.189253,0,0,0,0,0,0,0,0,0,0,0,0,0.939187765
0.00592,0.00296,148.629959,-148.630868,0.02,0,303.392714,0,0,0,0,0,0,0,0,0,0,0,0,2.20346045
0.00594,0.00297,149.092176,-149.093091,0.02,0,304.238174,0,0,0,0,0,0,0,0,0,0,0,0,0.845460653
0.00596,0.00298,149.554292,-149.555215,0.02,0,304.974121,0,0,0,0,0,0,0,0,0,0,0,0,0.735946417
0.00598,0.00299,150.016304,-150.017234,0.02,0,306.157324,0,0,0,0,0,0,0,0,0,0,0,0,1.18320322
0.006,0.003,150.478218,-150.479157,0.02,0,306.926616,0,0,0,0,0,0,0,0,0,0,0,0,0.769292116
0.00602,0.00301,150.940024,-150.94097,0.04,0,307.697684,0,0,0,0,0,0,0,0,0,0,0,0,0.771067381
0.00604,0.00302,151.401734,-151.402686,0.02,0,309.638101,0,0,0,0,0,0,0,0,0,0,0,0,1.94041777
0.00606,0.00303,151.863342,-151.864298,0.02,0,310.312879,0,0,0,0,0,0,0,0,0,0,0,0,0.674777985
0.00608,0.00304,152.324856,-152.325816,0.02,0,311.075611,0,0,0,0,0,0,0,0,0,0,0,0,0.762731791
0.0061,0.00305,152.786275,-152.787242,0.02,0,311.782074,0,0,0,0,0,0,0,0,0,0,0,0,0.70646286
0.00612,0.00306,153.24746,-153.248639,0.02,0,312.592816,0,0,0,0,0,0,0,0,0,0,0,0,0.81074214
0.00614,0.00307,153.708649,-153.709867,0.04,0,313.292342,0,0,0,0,0,0,0,0,0,0,0,0,0.699525833
0.00616,0.00308,154.170127,-154.170911,0.02,0,315.081684,0,0,0,0,0,0,0,0,0,0,0,0,1.78934169
0.00618,0.00309,154.630449,-154.631883,0.02,0,316.11809,0,0,0,0,0,0,0,0,0,0,0,0,1.03640676
0.0062,0.0031,155.091812,-155.092817,0.02,0,317.188322,0,0,0,0,0,0,0,0,0,0,0,0,1.07023191
0.00622,0.00311,155.55276,-155.553759,0.02,0,318.120763,0,0,0,0,0,0,0,0,0,0,0,0,0.932440758
0.00624,0.00312,156.013587,-156.014607,0.02,0,318.905764,0,0,0,0,0,0,0,0,0,0,0,0,0.785000801
0.00626,0.00313,156.474269,-156.475368,0.04,0,319.735876,0,0,0,0,0,0,0,0,0,0,0,0,0.830112457
0.00628,0.00314,156.934774,-156.936084,0.02,0,321.718355,0,0,0,0,0,0,0,0,0,0,0,0,1.9824791
0.0063,0.00315,157.395504,-157.396544,0.02,0,322.369284,0,0,0,0,0,0,0,0,0,0,0,0,0.650928974
0.00632,0.00316,157.855998,-157.85701,0.02,0,323.100945,0,0,0,0,0,0,0,0,0,0,0,0,0.731661081
0.00634,0.00317,158.316368,-158.317417,0.02,0,323.767779,0,0,0,0,0,0,0,0,0,0,0,0,0.666833401
0.00636,0.00318,158.776539,-158.777751,0.02,0,324.633968,0,0,0,0,0,0,0,0,0,0,0,0,0.86618948
0.00638,0.00319,159.236646,-159.238034,0.04,0,325.459749,0,0,0,0,0,0,0,0,0,0,0,0,0.825780869
0.0064,0.0032,159.696831,-159.698188,0.02,0,327.472419,0,0,0,0,0,0,0,0,0,0,0,0,2.01266932
0.00642,0.00321,160.156863,-160.158233,0.02,0,328.361239,0,0,0,0,0,0,0,0,0,0,0,0,0.888820648
0.00644,0.00322,160.616995,-160.618192,0.02,0,329.505183,0,0,0,0,0,0,0,0,0,0,0,0,1.14394355
0.00646,0.00323,161.076963,-161.078184,0.02,0,330.538158,0,0,0,0,0,0,0,0,0,0,0,0,1.03297567
0.00648,0.00324,161.536869,-161.537959,0.02,0,332.019063,0,0,0,0,0,0,0,0,0,0,0,0,1.48090434
0.0065,0.00325,161.996453,-161.997937,0.04,0,333.488971,0,0,0,0,0,0,0,0,0,0,0,0,1.46990776
0.00652,0.00326,162.456184,-162.45756,0.02,0,337.454357,0,0,0,0,0,0,0,0,0,0,0,0,3.96538663
0.00654,0.00327,162.915807,-162.917229,0.02,0,339.125676,0,0,0,0,0,0,0,0,0,0,0,0,1.67131877
0.00656,0.00328,163.375273,-163.376852,0.02,0,340.945421,0,0,0,0,0,0,0,0,0,0,0,0,1.81974506
0.00658,0.00329,163.834683,-163.836318,0.02,0,342.606818,0,0,0,0,0,0,0,0,0,0,0,0,1.66139674
0.0066,0.0033,164.294164,-164.29584,0.02,0,344.309171,0,0,0,0,0,0,0,0,0,0,0,0,1.70235372
0.00662,0.00331,164.753522,-164.755219,0.04,0,345.852923,0,0,0,0,0,0,0,0,0,0,0,0,1.54375124
0.00664,0.00332,165.212944,-165.214446,0.02,0,350.805083,0,0,0,0,0,0,0,0,0,0,0,0,4.9521606
0.00666,0.00333,165.672081,-165.67404,0.02,0,353.727513,0,0,0,0,0,0,0,0,0,0,0,0,2.92243004
0.00668,0.00334,166.131361,-166.132878,0.02,0,355.746841,0,0,0,0,0,0,0,0,0,0,0,0,2.01932788
0.0067,0.00335,166.590427,-166.591972,0.02,0,357.75544,0,0,0,0,0,0,0,0,0,0,0,0,2.00859857
0.00672,0.00336,167.04945,-167.051001,0.02,0,359.403018,0,0,0,0,0,0,0,0,0,0,0,0,1.64757824
0.00674,0.00337,167.508313,-167.50951,0.04,0,360.934417,0,0,0,0,0,0,0,0,0,0,0,0,1.53139925
0.00678,0.00339,168.42505,-168.425548,0.04,0,366.631559,0,0,0,0,0,0,0,0,0,0,0,0,5.69714189
0.00682,0.00341,169.855233,-169.87512,0.04,1,373.142273,0,0,0,0,0,0,0,0,0,0,0,0,6.51071429
0.00684,0.00342,169.787647,-169.786824,0.02,0,380.766887,0,0,0,0,0,0,0,0,0,0,0,0,7.62461352
0.00686,0.00343,170.251258,-170.254561,0.02,0,383.643407,0,0,0,0,0,0,0,0,0,0,0,0,2.8765204
0.00688,0.00344,170.717745,-170.720103,0.02,0,386.286319,0,0,0,0,0,0,0,0,0,0,0,0,2.64291191
0.0069,0.00345,171.182918,-171.184823,0.02,0,388.640094,0,0,0,0,0,0,0,0,0,0,0,0,2.35377479
0.00692,0.00346,171.647538,-171.649201,0.02,0,390.942271,0,0,0,0,0,0,0,0,0,0,0,0,2.30217719
0.00694,0.00347,172.111276,-172.112937,0.04,0,394.039143,0,0,0,0,0,0,0,0,0,0,0,0,3.09687138
0.00696,0.00348,172.574497,-172.576304,0.02,0,400.489658,0,0,0,0,0,0,0,0,0,0,0,0,6.45051503
0.00698,0.00349,173.037755,-173.039502,0.02,0,402.849671,0,0,0,0,0,0,0,0,0,0,0,0,2.36001301
0.007,0.0035,173.500782,-173.502486,0.02,0,404.968238,0,0,0,0,0,0,0,0,0,0,0,0,2.11856771
0.00702,0.00351,173.963771,-173.965312,0.02,0,407.066023,0,0,0,0,0,0,0,0,0,0,0,0,2.09778452
0.00704,0.00352,174.426156,-174.42787,0.02,0,408.90956,0,0,0,0,0,0,0,0,0,0,0,0,1.84353709
0.00706,0.00353,174.888469,-174.890132,0.04,0,411.602328,0,0,0,0,0,0,0,0,0,0,0,0,2.69276786
0.0071,0.00355,175.812665,-175.813117,0.04,0,417.275221,0,0,0,0,0,0,0,0,0,0,0,0,5.67289352
0.00714,0.00357,177.289399,-177.303627,0.04,1,425.545764,0,0,0,0,0,0,0,0,0,0,0,0,8.27054262
0.00718,0.00359,177.65044,-177.651948,0.04,0,431.300008,0,0,0,0,0,0,0,0,0,0,0,0,5.75424433
0.00722,0.00361,179.116812,-179.168625,0.04,1,436.995938,0,0,0,0,0,0,0,0,0,0,0,0,5.69593
0.00726,0.00363,179.999628,-179.899555,0.04,1,441.73037,0,0,0,0,0,0,0,0,0,0,0,0,4.73443174
0.00728,0.00364,179.968419,-179.968654,0.02,0,446.620672,0,0,0,0,0,0,0,0,0,0,0,0,4.8903017
0.0073,0.00365,180.431387,-180.435658,0.02,0,448.804792,0,0,0,0,0,0,0,0,0,0,0,0,2.18412018
0.00732,0.00366,180.896992,-180.899491,0.02,0,450.764194,0,0,0,0,0,0,0,0,0,0,0,0,1.95940256
0.00734,0.00367,181.361061,-181.363887,0.02,0,452.747656,0,0,0,0,0,0,0,0,0,0,0,0,1.98346138
0.00736,0.00368,181.824571,-181.827436,0.02,0,454.473115,0,0,0,0,0,0,0,0,0,0,0,0,1.72545886
0.00738,0.00369,182.288142,-182.290732,0.04,0,457.194776,0,0,0,0,0,0,0,0,0,0,0,0,2.72166085
0.0074,0.0037,182.750614,-182.753838,0.02,0,462.417675,0,0,0,0,0,0,0,0,0,0,0,0,5.22289944
0.00742,0.00371,183.21339,-183.215749,0.02,0,464.651844,0,0,0,0,0,0,0,0,0,0,0,0,2.23416853
0.00744,0.00372,183.676262,-183.678282,0.02,0,466.88448,0,0,0,0,0,0,0,0,0,0,0,0,2.23263621
0.00746,0.00373,184.138773,-184.140692,0.02,0,468.884161,0,0,0,0,0,0,0,0,0,0,0,0,1.99968076
0.00748,0.00374,184.600523,-184.603414,0.02,0,471.21523,0,0,0,0,0,0,0,0,0,0,0,0,2.33106995
0.0075,0.00375,185.062791,-185.064639,0.04,0,473.378498,0,0,0,0,0,0,0,0,0,0,0,0,2.16326737
0.00754,0.00377,185.988199,-185.987378,0.04,0,478.218521,0,0,0,0,0,0,0,0,0,0,0,0,4.84002304
0.00758,0.00379,186.912336,-186.909602,0.04,0,485.977033,0,0,0,0,0,0,0,0,0,0,0,0,7.75851178
0.00762,0.00381,187.830662,-187.83003,0.04,0,491.639766,0,0,0,0,0,0,0,0,0,0,0,0,5.66273355
0.00766,0.00383,188.732706,-188.740913,0.04,1,497.825778,0,0,0,0,0,0,0,0,0,0,0,0,6.18601179
0.0077,0.00385,189.655462,-189.661326,0.04,1,507.112009,0,0,0,0,0,0,0,0,0,0,0,0,9.28623104
0.00772,0.00386,190.124261,-190.1312,0.02,0,511.667841,0,0,0,0,0,0,0,0,0,0,0,0,4.55583167
0.00774,0.00387,190.586924,-190.588953,0.02,0,512.910352,0,0,0,0,0,0,0,0,0,0,0,0,1.24251127
0.00776,0.00388,191.047925,-191.050416,0.02,0,514.267002,0,0,0,0,0,0,0,0,0,0,0,0,1.35665011
0.00778,0.00389,191.508484,-191.510609,0.02,0,515.989129,0,0,0,0,0,0,0,0,0,0,0,0,1.72212648
0.0078,0.0039,191.968265,-191.970461,0.02,0,517.715455,0,0,0,0,0,0,0,0,0,0,0,0,1.72632623
0.00782,0.00391,192.428922,-192.43122,0.04,0,519.343462,0,0,0,0,0,0,0,0,0,0,0,0,1.62800765
0.00786,0.00393,193.352741,-193.354098,0.04,0,522.971095,0,0,0,0,0,0,0,0,0,0,0,0,3.62763286
0.0079,0.00395,194.624823,-194.634839,0.04,1,528.435317,0,0,0,0,0,0,0,0,0,0,0,0,5.46422124
0.00792,0.00396,194.720585,-194.720028,0.02,0,535.644096,0,0,0,0,0,0,0,0,0,0,0,0,7.20877934
0.00794,0.00397,195.172485,-195.18595,0.02,0,538.795806,0,0,0,0,0,0,0,0,0,0,0,0,3.15171051
0.00796,0.00398,195.639758,-195.644046,0.02,0,541.131807,0,0,0,0,0,0,0,0,0,0,0,0,2.33600068
0.00798,0.00399,196.098703,-196.102923,0.02,0,542.910335,0,0,0,0,0,0,0,0,0,0,0,0,1.77852798
0.008,0.004,196.557623,-196.562996,0.02,0,545.071053,0,0,0,0,0,0,0,0,0,0,0,0,2.16071773
0.00802,0.00401,197.016587,-197.022552,0.04,0,547.069167,0,0,0,0,0,0,0,0,0,0,0,0,1.99811459
0.00804,0.00402,197.467937,-197.483405,0.02,0,550.948653,0,0,0,0,0,0,0,0,0,0,0,0,3.87948608
0.00806,0.00403,197.932139,-197.938913,0.02,0,553.180422,0,0,0,0,0,0,0,0,0,0,0,0,2.23176837
0.00808,0.00404,198.383885,-198.399481,0.02,0,555.117779,0,0,0,0,0,0,0,0,0,0,0,0,1.93735743
0.0081,0.00405,198.84335,-198.859086,0.02,0,556.909884,0,0,0,0,0,0,0,0,0,0,0,0,1.79210448
0.00812,0.00406,199.306794,-199.313826,0.02,0,559.240495,0,0,0,0,0,0,0,0,0,0,0,0,2.33061123
0.00814,0.00407,199.766752,-199.772678,0.04,0,562.026288,0,0,0,0,0,0,0,0,0,0,0,0,2.78579283
0.00816,0.00408,200.217708,-200.233275,0.02,0,570.326486,0,0,0,0,0,0,0,0,0,0,0,0,8.30019784
0.00818,0.00409,200.682269,-200.688376,0.02,0,571.552413,0,0,0,0,0,0,0,0,0,0,0,0,1.22592688
0.0082,0.0041,201.140627,-201.147674,0.02,0,572.807869,0,0,0,0,0,0,0,0,0,0,0,0,1.25545645
0.00822,0.00411,201.590624,-201.605878,0.02,0,574.056949,0,0,0,0,0,0,0,0,0,0,0,0,1.2490797
0.00824,0.00412,202.057377,-202.062648,0.02,0,575.638213,0,0,0,0,0,0,0,0,0,0,0,0,1.58126426
0.00826,0.00413,202.514859,-202.520916,0.04,0,578.083136,0,0,0,0,0,0,0,0,0,0,0,0,2.44492316
0.0083,0.00415,203.536038,-203.636424,0.04,1,583.803888,0,0,0,0,0,0,0,0,0,0,0,0,5.72075152
0.00832,0.00416,203.896358,-203.900582,0.02,0,589.129514,0,0,0,0,0,0,0,0,0,0,0,0,5.32562613
0.00834,0.00417,204.350934,-204.354552,0.02,0,591.37442,0,0,0,0,0,0,0,0,0,0,0,0,2.24490595
0.00836,0.00418,204.806634,-204.810199,0.02,0,593.35589,0,0,0,0,0,0,0,0,0,0,0,0,1.98147035
0.00838,0.00419,205.263903,-205.267435,0.02,0,595.016985,0,0,0,0,0,0,0,0,0,0,0,0,1.66109514
0.0084,0.0042,205.719864,-205.725434,0.02,0,596.650842,0,0,0,0,0,0,0,0,0,0,0,0,1.63385701
0.00842,0.00421,206.17018,-206.185215,0.04,0,598.205964,0,0,0,0,0,0,0,0,0,0,0,0,1.5551219
0.00844,0.00422,206.635271,-206.638751,0.02,0,603.910177,0,0,0,0,0,0,0,0,0,0,0,0,5.7042129
0.00846,0.00423,207.091526,-207.09695,0.02,0,605.980975,0,0,0,0,0,0,0,0,0,0,0,0,2.07079792
0.00848,0.00424,207.54877,-207.554598,0.02,0,607.471983,0,0,0,0,0,0,0,0,0,0,0,0,1.49100828
0.0085,0.00425,207.99746,-208.012313,0.02,0,609.016958,0,0,0,0,0,0,0,0,0,0,0,0,1.54497457
0.00852,0.00426,208.463899,-208.467483,0.02,0,610.84732,0,0,0,0,0,0,0,0,0,0,0,0,1.83036184
0.00854,0.00427,208.920373,-208.925742,0.04,0,612.474153,0,0,0,0,0,0,0,0,0,0,0,0,1.62683296
0.00858,0.00429,209.901743,-210.033135,0.04,1,618.456498,0,0,0,0,0,0,0,0,0,0,0,0,5.98234534
0.0086,0.0043,210.299106,-210.304742,0.02,0,623.019195,0,0,0,0,0,0,0,0,0,0,0,0,4.5626967
0.00862,0.00431,210.753836,-210.758499,0.02,0,625.175803,0,0,0,0,0,0,0,0,0,0,0,0,2.15660858
0.00864,0.00432,211.210102,-211.21271,0.02,0,627.281041,0,0,0,0,0,0,0,0,0,0,0,0,2.10523772
0.00866,0.00433,211.666266,-211.669092,0.02,0,628.809925,0,0,0,0,0,0,0,0,0,0,0,0,1.52888417
0.00868,0.00434,212.122493,-212.12531,0.02,0,631.06983,0,0,0,0,0,0,0,0,0,0,0,0,2.25990486
0.0087,0.00435,212.579127,-212.581829,0.04,0,633.286059,0,0,0,0,0,0,0,0,0,0,0,0,2.21622896
0.00874,0.00437,213.952173,-213.893941,0.04,1,640.763809,0,0,0,0,0,0,0,0,0,0,0,0,7.47774982
0.00876,0.00438,213.940391,-213.940212,0.02,0,645.493692,0,0,0,0,0,0,0,0,0,0,0,0,4.72988343
0.00878,0.00439,214.397907,-214.397257,0.02,0,646.274135,0,0,0,0,0,0,0,0,0,0,0,0,0.780442476
0.0088,0.0044,214.854296,-214.861318,0.02,0,646.895872,0,0,0,0,0,0,0,0,0,0,0,0,0.621737003
0.00882,0.00441,215.314765,-215.318768,0.02,0,647.532809,0,0,0,0,0,0,0,0,0,0,0,0,0.636937618
0.00884,0.00442,215.774138,-215.779517,0.02,0,648.321369,0,0,0,0,0,0,0,0,0,0,0,0,0.788559675
0.00886,0.00443,216.234222,-216.238363,0.04,0,649.381634,0,0,0,0,0,0,0,0,0,0,0,0,1.06026506
0.00888,0.00444,216.693507,-216.69759,0.02,0,671.938771,0,0,0,0,0,0,0,0,0,0,0,0,22.5571365
0.0089,0.00445,217.152899,-217.156665,0.02,0,674.090378,0,0,0,0,0,0,0,0,0,0,0,0,2.15160775
0.00892,0.00446,217.611811,-217.615896,0.02,0,676.524209,0,0,0,0,0,0,0,0,0,0,0,0,2.43383098
0.00894,0.00447,218.071189,-218.074611,0.02,0,679.846103,0,0,0,0,0,0,0,0,0,0,0,0,3.32189345
0.00896,0.00448,218.529988,-218.533872,0.02,0,682.665891,0,0,0,0,0,0,0,0,0,0,0,0,2.81978869
0.00897,0.004485,218.762011,-218.761434,0.01,0,688.110272,0,0,0,0,0,0,0,0,0,0,0,0,5.444381
0.00898,0.00449,218.991607,-218.990755,0.01,0,690.541419,0,0,0,0,0,0,0,0,0,0,0,0,2.43114614
0.00899,0.004495,219.213579,-219.22283,0.01,0,692.619608,0,0,0,0,0,0,0,0,0,0,0,0,2.07818937
0.009,0.0045,219.451124,-219.450343,0.01,0,695.832093,0,0,0,0,0,0,0,0,0,0,0,0,3.21248484
0.00901,0.004505,219.672878,-219.682322,0.01,0,698.595395,0,0,0,0,0,0,0,0,0,0,0,0,2.76330233
0.00902,0.00451,219.910446,-219.909675,0.02,0,700.734939,0,0,0,0,0,0,0,0,0,0,0,0,2.13954377
0.00904,0.00452,220.36518,-220.371049,0.02,0,702.180444,0,0,0,0,0,0,0,0,0,0,0,0,1.4455049
0.00906,0.00453,220.824196,-220.828213,0.02,0,704.253008,0,0,0,0,0,0,0,0,0,0,0,0,2.0725646
0.00908,0.00454,221.283239,-221.285773,0.02,0,706.643734,0,0,0,0,0,0,0,0,0,0,0,0,2.39072609
0.0091,0.00455,221.741031,-221.745039,0.02,0,709.491236,0,0,0,0,0,0,0,0,0,0,0,0,2.84750175
0.00912,0.00456,222.199185,-222.202627,0.02,0,711.483861,0,0,0,0,0,0,0,0,0,0,0,0,1.99262452
0.00914,0.00457,222.656119,-222.661633,0.04,0,713.829711,0,0,0,0,0,0,0,0,0,0,0,0,2.34585023
0.00916,0.00458,223.11476,-223.118851,0.02,0,718.53555,0,0,0,0,0,0,0,0,0,0,0,0,4.70583892
0.00918,0.00459,223.572087,-223.577192,0.02,0,720.658516,0,0,0,0,0,0,0,0,0,0,0,0,2.12296605
0.0092,0.0046,224.029884,-224.03518,0.02,0,722.850502,0,0,0,0,0,0,0,0,0,0,0,0,2.19198608
0.00922,0.00461,224.487057,-224.492878,0.02,0,725.610937,0,0,0,0,0,0,0,0,0,0,0,0,2.76043534
0.00924,0.00462,224.945879,-224.949552,0.02,0,727.859994,0,0,0,0,0,0,0,0,0,0,0,0,2.24905682
0.00926,0.00463,225.403005,-225.407641,0.04,0,729.115611,0,0,0,0,0,0,0,0,0,0,0,0,1.25561643
0.0093,0.00465,226.896734,-226.898823,0.04,1,739.863607,0,0,0,0,0,0,0,0,0,0,0,0,10.7479966
0.00934,0.00467,227.801223,-227.774847,0.04,1,745.654261,0,0,0,0,0,0,0,0,0,0,0,0,5.79065418
0.00936,0.00468,227.696398,-227.696772,0.02,0,752.412597,0,0,0,0,0,0,0,0,0,0,0,0,6.75833535
0.00938,0.00469,228.163905,-228.163062,0.02,0,755.557246,0,0,0,0,0,0,0,0,0,0,0,0,3.14464903
0.0094,0.0047,228.630186,-228.629484,0.02,0,759.930059,0,0,0,0,0,0,0,0,0,0,0,0,4.37281299
0.00942,0.00471,229.096976,-229.09648,0.02,0,764.131112,0,0,0,0,0,0,0,0,0,0,0,0,4.20105314
0.00944,0.00472,229.562908,-229.568773,0.02,0,765.940518,0,0,0,0,0,0,0,0,0,0,0,0,1.8094058
0.00946,0.00473,230.029626,-230.033494,0.04,0,767.215445,0,0,0,0,0,0,0,0,0,0,0,0,1.27492762
0.00948,0.00474,230.49656,-230.495979,0.02,0,773.084413,0,0,0,0,0,0,0,0,0,0,0,0,5.86896753
0.0095,0.00475,230.961413,-230.967182,0.02,0,774.80854,0,0,0,0,0,0,0,0,0,0,0,0,1.72412682
0.00952,0.00476,231.427138,-231.430543,0.02,0,776.179178,0,0,0,0,0,0,0,0,0,0,0,0,1.37063837
0.00954,0.00477,231.893361,-231.898548,0.02,0,777.458682,0,0,0,0,0,0,0,0,0,0,0,0,1.27950358
0.00956,0.00478,232.358253,-232.36249,0.02,0,778.567146,0,0,0,0,0,0,0,0,0,0,0,0,1.10846472
0.00958,0.00479,232.824157,-232.823584,0.04,0,781.510793,0,0,0,0,0,0,0,0,0,0,0,0,2.94364691
0.0096,0.0048,233.28823,-233.290784,0.02,0,785.924093,0,0,0,0,0,0,0,0,0,0,0,0,4.41329956
0.00962,0.00481,233.753063,-233.756631,0.02,0,788.415441,0,0,0,0,0,0,0,0,0,0,0,0,2.49134827
0.00964,0.00482,234.218147,-234.221507,0.02,0,790.527904,0,0,0,0,0,0,0,0,0,0,0,0,2.11246276
0.00966,0.00483,234.683122,-234.685342,0.02,0,792.220454,0,0,0,0,0,0,0,0,0,0,0,0,1.69255042
0.00968,0.00484,235.147927,-235.152051,0.02,0,793.662976,0,0,0,0,0,0,0,0,0,0,0,0,1.44252157
0.0097,0.00485,235.612206,-235.617533,0.04,0,794.876414,0,0,0,0,0,0,0,0,0,0,0,0,1.2134378
0.00972,0.00486,236.076747,-236.081601,0.02,0,799.642416,0,0,0,0,0,0,0,0,0,0,0,0,4.76600218
0.00974,0.00487,236.540348,-236.543694,0.02,0,802.036841,0,0,0,0,0,0,0,0,0,0,0,0,2.39442492
0.00976,0.00488,237.005148,-237.009878,0.02,0,804.286358,0,0,0,0,0,0,0,0,0,0,0,0,2.24951768
0.00978,0.00489,237.468811,-237.473821,0.02,0,805.89839,0,0,0,0,0,0,0,0,0,0,0,0,1.61203146
0.0098,0.0049,237.932879,-237.932501,0.02,0,807.235,0,0,0,0,0,0,0,0,0,0,0,0,1.33661056
0.00982,0.00491,238.396119,-238.40109,0.04,0,808.153387,0,0,0,0,0,0,0,0,0,0,0,0,0.918386459
0.00984,0.00492,238.860432,-238.86494,0.02,0,814.168959,0,0,0,0,0,0,0,0,0,0,0,0,6.01557255
0.00986,0.00493,239.323999,-239.329123,0.02,0,815.142989,0,0,0,0,0,0,0,0,0,0,0,0,0.974029541
0.00988,0.00494,239.787723,-239.792243,0.02,0,815.83295,0,0,0,0,0,0,0,0,0,0,0,0,0.689960957
0.0099,0.00495,240.251173,-240.256155,0.02,0,816.941873,0,0,0,0,0,0,0,0,0,0,0,0,1.1089232
0.00992,0.00496,240.714365,-240.719244,0.02,0,818.393081,0,0,0,0,0,0,0,0,0,0,0,0,1.45120835
0.00994,0.00497,241.177711,-241.182594,0.04,0,820.49838,0,0,0,0,0,0,0,0,0,0,0,0,2.10529876
0.00998,0.00499,242.100205,-242.103175,0.04,0,825.782146,0,0,0,0,0,0,0,0,0,0,0,0,5.28376532
0.01,0.005,242.565014,-242.56993,0.02,0,832.751718,0,0,0,0,0,0,0,0,0,0,0,0,6.96957254
0.01002,0.00501,243.028445,-243.032611,0.02,0,833.921722,0,0,0,0,0,0,0,0,0,0,0,0,1.17000413
0.01004,0.00502,243.491652,-243.496502,0.02,0,835.079518,0,0,0,0,0,0,0,0,0,0,0,0,1.15779591
0.01006,0.00503,243.95444,-243.958393,0.02,0,837.798002,0,0,0,0,0,0,0,0,0,0,0,0,2.71848345
0.01008,0.00504,244.417515,-244.422033,0.02,0,839.985055,0,0,0,0,0,0,0,0,0,0,0,0,2.1870532
0.0101,0.00505,244.879905,-244.883692,0.04,0,841.719596,0,0,0,0,0,0,0,0,0,0,0,0,1.73454094
0.01014,0.00507,246.532382,-246.574401,0.04,1,849.582651,0,0,0,0,0,0,0,0,0,0,0,0,7.86305523
0.01016,0.00508,246.258141,-246.258068,0.02,0,854.085171,0,0,0,0,0,0,0,0,0,0,0,0,4.50252056
0.01018,0.00509,246.7253,-246.724271,0.02,0,855.385813,0,0,0,0,0,0,0,0,0,0,0,0,1.30064178
0.01019,0.005095,246.951303,-246.960571,0.01,0,859.114861,0,0,0,0,0,0,0,0,0,0,0,0,3.72904801
0.0102,0.0051,247.185797,-247.196023,0.01,0,860.78202,0,0,0,0,0,0,0,0,0,0,0,0,1.66715908
0.01021,0.005105,247.430031,-247.429044,0.01,0,863.226249,0,0,0,0,0,0,0,0,0,0,0,0,2.44422841
0.01022,0.00511,247.657055,-247.666702,0.01,0,865.596128,0,0,0,0,0,0,0,0,0,0,0,0,2.36987972
0.01023,0.005115,247.901144,-247.900179,0.01,0,866.493414,0,0,0,0,0,0,0,0,0,0,0,0,0.897285938
0.01024,0.00512,248.128348,-248.138091,0.02,0,867.188668,0,0,0,0,0,0,0,0,0,0,0,0,0.695253611
0.01026,0.00513,248.607813,-248.606857,0.02,0,868.302662,0,0,0,0,0,0,0,0,0,0,0,0,1.11399412
0.01028,0.00514,249.07907,-249.078125,0.02,0,871.178332,0,0,0,0,0,0,0,0,0,0,0,0,2.87566972
0.0103,0.00515,249.55028,-249.549333,0.02,0,874.224301,0,0,0,0,0,0,0,0,0,0,0,0,3.04596925
0.01032,0.00516,250.021661,-250.020751,0.02,0,877.185809,0,0,0,0,0,0,0,0,0,0,0,0,2.96150756
0.01033,0.005165,250.257732,-250.256879,0.01,0,880.268476,0,0,0,0,0,0,0,0,0,0,0,0,3.08266735
0.01034,0.00517,250.485808,-250.495406,0.01,0,881.893791,0,0,0,0,0,0,0,0,0,0,0,0,1.62531543
0.01035,0.005175,250.730085,-250.72914,0.01,0,883.791213,0,0,0,0,0,0,0,0,0,0,0,0,1.89742112
0.01036,0.00518,250.957294,-250.967154,0.01,0,884.99058,0,0,0,0,0,0,0,0,0,0,0,0,1.19936705
0.01037,0.005185,251.201494,-251.200542,0.01,0,885.765241,0,0,0,0,0,0,0,0,0,0,0,0,0.774661303
0.01038,0.00519,251.428404,-251.438388,0.02,0,887.102723,0,0,0,0,0,0,0,0,0,0,0,0,1.33748245
0.01039,0.005195,251.672531,-251.671577,0.01,0,891.897996,0,0,0,0,0,0,0,0,0,0,0,0,4.79527283
0.0104,0.0052,251.899234,-251.9093,0.01,0,893.591148,0,0,0,0,0,0,0,0,0,0,0,0,1.69315171
0.01041,0.005205,252.143282,-252.142325,0.01,0,894.742171,0,0,0,0,0,0,0,0,0,0,0,0,1.15102267
0.01042,0.00521,252.369815,-252.379941,0.01,0,896.088059,0,0,0,0,0,0,0,0,0,0,0,0,1.34588861
0.01043,0.005215,252.609078,-252.614208,0.01,0,896.993995,0,0,0,0,0,0,0,0,0,0,0,0,0.905935764
0.01044,0.00522,252.839964,-252.850599,0.02,0,897.966967,0,0,0,0,0,0,0,0,0,0,0,0,0.972971916
0.01046,0.00523,253.318295,-253.317358,0.02,0,899.338702,0,0,0,0,0,0,0,0,0,0,0,0,1.37173557
0.01048,0.00524,253.787301,-253.786433,0.02,0,900.357219,0,0,0,0,0,0,0,0,0,0,0,0,1.01851678
0.0105,0.00525,254.256763,-254.255861,0.02,0,902.227219,0,0,0,0,0,0,0,0,0,0,0,0,1.86999965
0.01052,0.00526,254.726216,-254.725274,0.02,0,904.781936,0,0,0,0,0,0,0,0,0,0,0,0,2.55471754
0.01054,0.00527,255.195381,-255.19444,0.02,0,906.529073,0,0,0,0,0,0,0,0,0,0,0,0,1.74713683
0.01056,0.00528,255.664218,-255.663283,0.04,0,908.643497,0,0,0,0,0,0,0,0,0,0,0,0,2.11442327
0.0106,0.0053,256.921282,-257.013594,0.04,1,914.754742,0,0,0,0,0,0,0,0,0,0,0,0,6.11124587
0.01064,0.00532,257.536115,-257.531744,0.04,0,919.360456,0,0,0,0,0,0,0,0,0,0,0,0,4.60571408
0.01068,0.00534,258.468865,-258.46828,0.04,0,922.964932,0,0,0,0,0,0,0,0,0,0,0,0,3.60447526
0.0107,0.00535,258.937583,-258.93941,0.02,0,926.876752,0,0,0,0,0,0,0,0,0,0,0,0,3.91182041
0.01072,0.00536,259.404644,-259.404211,0.02,0,928.851671,0,0,0,0,0,0,0,0,0,0,0,0,1.9749186
0.01074,0.00537,259.871948,-259.871124,0.02,0,930.700689,0,0,0,0,0,0,0,0,0,0,0,0,1.8490181
0.01076,0.00538,260.340092,-260.339051,0.02,0,933.917212,0,0,0,0,0,0,0,0,0,0,0,0,3.21652293
0.01078,0.00539,260.807759,-260.806828,0.02,0,936.723387,0,0,0,0,0,0,0,0,0,0,0,0,2.80617547
0.0108,0.0054,261.274963,-261.275463,0.04,0,939.406077,0,0,0,0,0,0,0,0,0,0,0,0,2.68268967
0.01082,0.00541,261.742009,-261.741604,0.02,0,946.937585,0,0,0,0,0,0,0,0,0,0,0,0,7.53150821
0.01084,0.00542,262.209593,-262.209242,0.02,0,949.604237,0,0,0,0,0,0,0,0,0,0,0,0,2.66665196
0.01086,0.00543,262.677787,-262.677155,0.02,0,952.084896,0,0,0,0,0,0,0,0,0,0,0,0,2.48065901
0.01088,0.00544,263.144093,-263.143506,0.02,0,954.431353,0,0,0,0,0,0,0,0,0,0,0,0,2.34645677
0.0109,0.00545,263.611465,-263.611228,0.02,0,956.705965,0,0,0,0,0,0,0,0,0,0,0,0,2.27461171
0.01092,0.00546,264.07704,-264.078108,0.04,0,959.539034,0,0,0,0,0,0,0,0,0,0,0,0,2.83306956
0.01096,0.00548,265.00664,-265.010339,0.04,0,964.888868,0,0,0,0,0,0,0,0,0,0,0,0,5.34983373
0.01098,0.00549,265.4735,-265.479373,0.02,0,969.337854,0,0,0,0,0,0,0,0,0,0,0,0,4.44898605
0.011,0.0055,265.941892,-265.942196,0.02,0,972.271173,0,0,0,0,0,0,0,0,0,0,0,0,2.93331957
0.01102,0.00551,266.407372,-266.407241,0.02,0,973.790699,0,0,0,0,0,0,0,0,0,0,0,0,1.51952577
0.01104,0.00552,266.874668,-266.874875,0.02,0,976.283172,0,0,0,0,0,0,0,0,0,0,0,0,2.49247313
0.01106,0.00553,267.340265,-267.340185,0.02,0,978.844841,0,0,0,0,0,0,0,0,0,0,0,0,2.56166911
0.01108,0.00554,267.807244,-267.808222,0.04,0,982.904192,0,0,0,0,0,0,0,0,0,0,0,0,4.05935097
0.01112,0.00556,268.735205,-268.736653,0.04,0,992.204705,0,0,0,0,0,0,0,0,0,0,0,0,9.30051208
0.01116,0.00558,270.199886,-270.320534,0.04,1,999.669659,0,0,0,0,0,0,0,0,0,0,0,0,7.46495485
0.01118,0.00559,270.124531,-270.124838,0.02,0,1007.48413,0,0,0,0,0,0,0,0,0,0,0,0,7.81447387
0.0112,0.0056,270.591971,-270.591021,0.02,0,1009.81633,0,0,0,0,0,0,0,0,0,0,0,0,2.33219504
0.01122,0.00561,271.061194,-271.060256,0.02,0,1013.00001,0,0,0,0,0,0,0,0,0,0,0,0,3.18368268
0.01124,0.00562,271.530832,-271.529911,0.02,0,1015.09547,0,0,0,0,0,0,0,0,0,0,0,0,2.09546089
0.01126,0.00563,272.000995,-272.000334,0.02,0,1016.7212,0,0,0,0,0,0,0,0,0,0,0,0,1.62572789
0.01128,0.00564,272.471577,-272.470871,0.04,0,1019.3126,0,0,0,0,0,0,0,0,0,0,0,0,2.59140062
0.01132,0.00566,273.420296,-273.416214,0.04,0,1023.54647,0,0,0,0,0,0,0,0,0,0,0,0,4.23387003
0.01134,0.00567,273.883347,-273.885562,0.02,0,1028.37738,0,0,0,0,0,0,0,0,0,0,0,0,4.83090758
0.01136,0.00568,274.353546,-274.354684,0.02,0,1030.04566,0,0,0,0,0,0,0,0,0,0,0,0,1.6682806
0.01138,0.00569,274.824075,-274.823012,0.02,0,1031.90454,0,0,0,0,0,0,0,0,0,0,0,0,1.8588798
0.0114,0.0057,275.29449,-275.293443,0.02,0,1034.84484,0,0,0,0,0,0,0,0,0,0,0,0,2.94030476
0.01142,0.00571,275.763693,-275.763202,0.02,0,1037.58091,0,0,0,0,0,0,0,0,0,0,0,0,2.73606372
0.01144,0.00572,276.23375,-276.233336,0.04,0,1039.64433,0,0,0,0,0,0,0,0,0,0,0,0,2.06342554
0.01148,0.00574,277.170056,-277.171215,0.04,0,1045.57533,0,0,0,0,0,0,0,0,0,0,0,0,5.93099999
0.01152,0.00576,278.788624,-278.863853,0.04,1,1048.20527,0,0,0,0,0,0,0,0,0,0,0,0,2.62993956
0.01154,0.00577,278.569398,-278.569756,0.02,0,1053.86369,0,0,0,0,0,0,0,0,0,0,0,0,5.6584208
0.01156,0.00578,279.03517,-279.034686,0.02,0,1058.17967,0,0,0,0,0,0,0,0,0,0,0,0,4.31598139
0.01158,0.00579,279.503688,-279.503113,0.02,0,1060.88848,0,0,0,0,0,0,0,0,0,0,0,0,2.70880365
0.0116,0.0058,279.974388,-279.973441,0.02,0,1064.55523,0,0,0,0,0,0,0,0,0,0,0,0,3.66675448
0.01162,0.00581,280.440392,-280.450359,0.02,0,1065.97235,0,0,0,0,0,0,0,0,0,0,0,0,1.41711903
0.01164,0.00582,280.915111,-280.914122,0.04,0,1068.50662,0,0,0,0,0,0,0,0,0,0,0,0,2.53426743
0.01166,0.00583,281.383152,-281.386936,0.02,0,1074.00354,0,0,0,0,0,0,0,0,0,0,0,0,5.49692559
0.01168,0.00584,281.855071,-281.854536,0.02,0,1075.34419,0,0,0,0,0,0,0,0,0,0,0,0,1.34064651
0.0117,0.00585,282.325261,-282.324942,0.02,0,1078.82601,0,0,0,0,0,0,0,0,0,0,0,0,3.48181796
0.01172,0.00586,282.795397,-282.795086,0.02,0,1080.88095,0,0,0,0,0,0,0,0,0,0,0,0,2.05494547
0.01174,0.00587,283.265663,-283.265482,0.02,0,1083.47507,0,0,0,0,0,0,0,0,0,0,0,0,2.59411693
0.01176,0.00588,283.734888,-283.745753,0.04,0,1084.98803,0,0,0,0,0,0,0,0,0,0,0,0,1.51296139
0.01178,0.00589,284.207235,-284.210933,0.02,0,1093.5899,0,0,0,0,0,0,0,0,0,0,0,0,8.60186696
0.0118,0.0059,284.676513,-284.675753,0.02,0,1096.2926,0,0,0,0,0,0,0,0,0,0,0,0,2.70270443
0.01182,0.00591,285.144952,-285.145068,0.02,0,1099.02517,0,0,0,0,0,0,0,0,0,0,0,0,2.73256874
0.01184,0.00592,285.613606,-285.623067,0.02,0,1101.34082,0,0,0,0,0,0,0,0,0,0,0,0,2.31564522
0.01186,0.00593,286.084829,-286.084624,0.02,0,1103.98123,0,0,0,0,0,0,0,0,0,0,0,0,2.64040852
0.01188,0.00594,286.553628,-286.553066,0.04,0,1106.66853,0,0,0,0,0,0,0,0,0,0,0,0,2.68730474
0.01192,0.00596,287.875829,-287.84402,0.04,1,1110.48589,0,0,0,0,0,0,0,0,0,0,0,0,3.81735706
0.01196,0.00598,288.405231,-288.413683,0.04,1,1117.41289,0,0,0,0,0,0,0,0,0,0,0,0,6.92700291
0.01198,0.00599,288.890337,-288.890213,0.02,0,1125.84668,0,0,0,0,0,0,0,0,0,0,0,0,8.43379021
0.012,0.006,289.362007,-289.360993,0.02,0,1128.26195,0,0,0,0,0,0,0,0,0,0,0,0,2.41526532
0.01202,0.00601,289.83052,-289.829895,0.02,0,1130.00317,0,0,0,0,0,0,0,0,0,0,0,0,1.74122572
0.01204,0.00602,290.301073,-290.300663,0.02,0,1132.32866,0,0,0,0,0,0,0,0,0,0,0,0,2.32549238
0.01206,0.00603,290.768416,-290.769368,0.02,0,1134.68067,0,0,0,0,0,0,0,0,0,0,0,0,2.35200429
0.01208,0.00604,291.236647,-291.237347,0.04,0,1136.4323,0,0,0,0,0,0,0,0,0,0,0,0,1.75162792
0.0121,0.00605,291.704611,-291.70596,0.02,0,1142.31403,0,0,0,0,0,0,0,0,0,0,0,0,5.88173413
0.01212,0.00606,292.172634,-292.171969,0.02,0,1145.06308,0,0,0,0,0,0,0,0,0,0,0,0,2.74904752
0.01214,0.00607,292.639498,-292.639115,0.02,0,1149.51648,0,0,0,0,0,0,0,0,0,0,0,0,4.45340633
0.01216,0.00608,293.107873,-293.107469,0.02,0,1151.91982,0,0,0,0,0,0,0,0,0,0,0,0,2.40333366
0.01218,0.00609,293.575115,-293.574915,0.02,0,1155.43533,0,0,0,0,0,0,0,0,0,0,0,0,3.51551342
0.0122,0.0061,294.043229,-294.043072,0.04,0,1157.23326,0,0,0,0,0,0,0,0,0,0,0,0,1.79792523
0.01222,0.00611,294.50937,-294.511156,0.02,0,1161.81971,0,0,0,0,0,0,0,0,0,0,0,0,4.58645749
0.01224,0.00612,294.976363,-294.975892,0.02,0,1163.52427,0,0,0,0,0,0,0,0,0,0,0,0,1.70455098
0.01226,0.00613,295.442449,-295.442348,0.02,0,1165.51358,0,0,0,0,0,0,0,0,0,0,0,0,1.98931193
0.01228,0.00614,295.909228,-295.909189,0.02,0,1167.31189,0,0,0,0,0,0,0,0,0,0,0,0,1.79831576
0.0123,0.00615,296.375556,-296.376143,0.02,0,1169.71153,0,0,0,0,0,0,0,0,0,0,0,0,2.39963293
0.01231,0.006155,296.601889,-296.612865,0.01,0,1173.3294,0,0,0,0,0,0,0,0,0,0,0,0,3.61787057
0.01232,0.00616,296.845595,-296.844692,0.01,0,1174.49899,0,0,0,0,0,0,0,0,0,0,0,0,1.16959095
0.01233,0.006165,297.069829,-297.080758,0.01,0,1175.79921,0,0,0,0,0,0,0,0,0,0,0,0,1.30022311
0.01234,0.00617,297.313209,-297.312296,0.01,0,1177.4095,0,0,0,0,0,0,0,0,0,0,0,0,1.61029363
0.01235,0.006175,297.537014,-297.548111,0.01,0,1179.00613,0,0,0,0,0,0,0,0,0,0,0,0,1.596627
0.01236,0.00618,297.780349,-297.779431,0.02,0,1180.44374,0,0,0,0,0,0,0,0,0,0,0,0,1.43761086
0.01238,0.00619,298.243944,-298.249713,0.02,0,1181.94296,0,0,0,0,0,0,0,0,0,0,0,0,1.49922204
0.0124,0.0062,298.709645,-298.714253,0.02,0,1183.55042,0,0,0,0,0,0,0,0,0,0,0,0,1.60745621
0.01242,0.00621,299.176563,-299.182026,0.02,0,1184.79576,0,0,0,0,0,0,0,0,0,0,0,0,1.24533844
0.01244,0.00622,299.632787,-299.648858,0.02,0,1185.93012,0,0,0,0,0,0,0,0,0,0,0,0,1.13435674
0.01246,0.00623,300.10636,-300.11248,0.02,0,1187.21717,0,0,0,0,0,0,0,0,0,0,0,0,1.28705764
0.01248,0.00624,300.574495,-300.57908,0.04,0,1188.42582,0,0,0,0,0,0,0,0,0,0,0,0,1.20864916
0.01249,0.006245,300.79978,-300.825499,0.01,0,1195.9645,0,0,0,0,0,0,0,0,0,0,0,0,7.53867888
0.0125,0.00625,301.043615,-301.042453,0.01,0,1197.00002,0,0,0,0,0,0,0,0,0,0,0,0,1.03551459
0.01251,0.006255,301.266265,-301.277062,0.01,0,1198.07574,0,0,0,0,0,0,0,0,0,0,0,0,1.07571936
0.01252,0.00626,301.50891,-301.507935,0.01,0,1199.49158,0,0,0,0,0,0,0,0,0,0,0,0,1.41583967
0.01253,0.006265,301.732296,-301.743335,0.01,0,1200.89757,0,0,0,0,0,0,0,0,0,0,0,0,1.40599298
