# ADR90 WP-A2 tau=0 band, build 9e73060a90e81a35ebd842bcd10a315a980ffac4 (expected 9e73060a90e81a35ebd842bcd10a315a980ffac4), leg h1.0_e0.6944
s_m,s_over_B,q_foot_kPa,q_base_kPa,ds_mm,relaxed,wall_s,implex_err_avg,implex_refusals,guard_floor,guard_f0,guard_hold,guard_res,guard_ctlf
2e-05,1e-05,2.73884294,-0.563280637,0.02,0,0.0546078682,0.00226130872,0,0,0,0,0,0
4e-05,2e-05,2.29252108,-2.23779554,0.02,0,0.101751089,0.000234808345,0,0,0,0,1568,56
6e-05,3e-05,2.65289443,-2.71314681,0.02,0,0.192015886,0.000230599195,0,0,48,0,1568,22
8e-05,4e-05,3.09095106,-3.12381378,0.02,0,0.264424086,8.58408766e-05,0,0,22,0,1568,31
0.0001,5e-05,3.53014236,-3.54431416,0.02,0,0.335083485,5.32668453e-05,0,0,8,0,1568,10
0.00012,6e-05,3.95807019,-3.96634929,0.04,0,0.409891129,4.04425816e-05,0,0,4,0,1568,10
0.00016,8e-05,4.70240303,-4.71667578,0.04,0,0.570953369,0.000131159661,0,0,4,0,1568,62
0.0002,0.0001,5.53946838,-5.55580842,0.04,0,0.69768095,7.43945023e-05,0,0,4,0,1572,151
0.00024,0.00012,6.2912023,-6.3050124,0.04,0,0.828583241,9.80345597e-05,0,0,0,0,1568,72
0.00028,0.00014,7.01228533,-7.02174192,0.04,0,0.956093788,5.73277872e-05,0,0,4,0,1568,150
0.00032,0.00016,7.62078165,-7.62460783,0.04,0,1.14089036,0.000121276564,0,0,4,0,1568,202
0.00036,0.00018,8.28926155,-8.29555315,0.08,0,1.32030988,3.90621525e-05,0,0,8,0,1576,341
0.00044,0.00022,9.67037692,-9.67529826,0.08,0,1.58613825,8.53520072e-05,0,0,0,0,1568,408
0.00052,0.00026,10.9780059,-10.9946193,0.08,0,1.8721087,0.000101461421,0,0,0,0,1572,402
0.0006,0.0003,12.2566032,-12.2706037,0.08,0,2.16357517,8.74640717e-05,0,0,4,0,1572,446
0.00068,0.00034,13.5167108,-13.5336978,0.08,0,2.46398926,7.90203919e-05,0,0,4,0,1576,488
0.00076,0.00038,14.7590401,-14.7757455,0.08,0,2.75493407,7.24792139e-05,0,0,0,0,1576,508
0.00084,0.00042,15.9819363,-15.9930709,0.16,0,3.03451276,6.00818893e-05,0,0,0,0,1576,540
0.001,0.0005,18.4481802,-18.4459859,0.16,0,3.58307791,0.000112584518,0,0,0,0,1568,552
0.00116,0.00058,20.8104169,-20.8240565,0.16,0,4.06609392,0.000154897416,0,0,0,0,1576,555
0.00132,0.00066,23.1343877,-23.154421,0.16,0,4.63666725,0.000136477768,0,0,4,0,1576,568
0.00148,0.00074,25.4256359,-25.5886184,0.16,0,5.14643455,0.000135202895,0,0,4,0,1576,584
0.00164,0.00082,27.6887313,-27.7756793,0.16,0,5.65132236,0.000114924744,0,0,4,0,1572,608
0.0018,0.0009,29.8351007,-29.7283959,0.32,0,6.31568909,0.000148934179,0,0,8,0,1572,600
0.00212,0.00106,34.1938207,-33.8879439,0.32,0,7.87326431,0.000169609071,4,0,8,0,1568,664
0.00244,0.00122,38.7609857,-38.4450733,0.32,0,9.00454259,0.0002282207,8,0,8,0,1572,648
0.00276,0.00138,43.0929617,-42.8557501,0.32,0,10.0940723,0.000317268246,8,0,0,0,1572,588
0.00308,0.00154,47.3200211,-47.2669305,0.32,0,11.1615372,0.000275592797,8,0,4,0,1572,588
0.0034,0.0017,51.5087544,-51.5823196,0.32,0,12.2542133,0.000241222187,8,0,0,0,1572,592
0.00372,0.00186,55.67069,-55.8002657,0.64,0,13.3182285,0.000220510857,8,0,0,0,1572,598
0.00404,0.00202,59.8111791,-59.9566148,0.32,0,14.8698013,0.000203532005,32,0,0,0,11076,2685
0.00436,0.00218,63.9264678,-64.0733294,0.32,0,15.9741306,0.000181941929,32,0,0,0,1576,596
0.00468,0.00234,67.9348987,-68.0497898,0.32,0,17.1973441,0.000203790605,32,0,0,0,1576,592
0.005,0.0025,71.9734236,-72.0713418,0.32,0,18.3604629,0.000132547631,32,0,4,0,1576,591
0.00532,0.00266,76.0459095,-76.1295727,0.32,0,19.5440257,0.000107365962,32,0,4,0,1580,600
0.00564,0.00282,80.088275,-80.1650103,0.64,0,20.7362182,0.00010354614,32,0,0,0,1584,613
0.00628,0.00314,88.188629,-88.2445699,0.64,0,23.0888772,0.000182822826,36,0,0,0,1568,702
0.00692,0.00346,96.2369741,-96.2995645,0.64,0,25.4764333,0.000269351987,36,0,0,0,1584,620
0.00756,0.00378,104.207512,-104.271097,0.64,0,27.8237245,0.000291385621,36,0,0,0,1584,622
0.0082,0.0041,111.976694,-112.04637,0.64,0,30.4193461,0.000307104372,36,0,0,0,1580,624
0.00884,0.00442,119.724545,-119.81054,0.64,0,33.0055518,0.000296570784,36,0,0,0,1576,633
0.00948,0.00474,127.403775,-127.473859,1.28,0,35.8375528,0.000290912029,36,0,0,0,1576,638
0.01012,0.00506,135.115908,-135.190491,0.64,0,39.4139817,0.000290249598,84,0,0,0,11080,2636
0.01076,0.00538,142.82649,-142.900426,0.64,0,42.2649872,0.000292351684,84,0,0,0,1576,652
0.0114,0.0057,150.525438,-150.595492,0.64,0,45.171494,0.000289012405,84,0,0,0,1576,656
0.01204,0.00602,158.181338,-158.257881,0.64,0,47.9598427,0.0002760372,84,0,0,0,1574,660
0.01268,0.00634,165.7279,-165.793426,0.64,0,51.2879694,0.000247095886,84,0,0,0,1572,666
0.01332,0.00666,173.296793,-173.368056,1.28,0,54.5201092,0.000215313737,84,0,0,0,1572,668
0.01396,0.00698,180.878216,-180.947374,0.64,0,58.3266673,0.000195893246,108,0,0,0,11076,2946
0.0146,0.0073,188.395521,-188.453766,0.64,0,61.7649088,0.000184626145,108,0,0,0,1572,680
0.01524,0.00762,195.941579,-195.998337,0.64,0,65.2092822,0.000156928018,108,0,0,0,1572,680
0.01588,0.00794,203.48249,-203.553144,0.64,0,68.5389667,0.000151347269,108,0,0,0,1572,684
0.01652,0.00826,210.970428,-211.024786,0.64,0,71.8555384,0.000155343225,108,0,0,0,1574,683
0.01716,0.00858,218.483433,-218.545307,1.28,0,75.1691408,0.000138605855,108,0,0,0,1572,684
0.0178,0.0089,225.997839,-226.10442,0.64,0,79.0661702,0.000144110877,132,0,0,0,11076,3004
0.01844,0.00922,233.440559,-233.448515,0.64,0,82.441879,0.000145591335,132,0,0,0,1572,692
0.01908,0.00954,240.904407,-240.907451,0.64,0,85.9051316,0.000138738363,132,0,0,0,1572,692
0.01972,0.00986,248.322086,-248.331745,0.64,0,89.5285072,0.000129655254,132,0,0,0,1572,680
0.02036,0.01018,255.777536,-255.800283,0.64,0,93.2107961,0.000129440313,132,0,0,0,1574,698
0.021,0.0105,263.236454,-263.271056,1.28,0,96.8360653,0.000129990703,132,0,0,0,1572,690
0.02228,0.01114,278.195484,-278.238161,1.28,0,104.682819,0.000180846897,136,0,0,0,1572,799
0.02292,0.01146,285.687368,-285.729085,0.64,0,110.368379,0.000179421265,160,0,0,0,11146,3070
0.02356,0.01178,293.066279,-293.106356,0.64,0,114.104733,0.000172633406,160,0,0,0,1572,702
0.0242,0.0121,300.379062,-300.436925,0.64,0,118.048417,0.000151643666,160,0,0,0,1572,702
0.02484,0.01242,307.70812,-307.741151,0.64,0,122.126787,0.00013171509,160,0,0,0,1574,708
0.02548,0.01274,315.093106,-315.129475,0.64,0,126.102087,0.00011968522,160,0,0,0,1572,714
0.02612,0.01306,322.501277,-322.526176,1.28,0,130.145097,0.000113345365,160,0,0,0,1572,718
0.02676,0.01338,329.902647,-329.944667,0.64,0,136.588614,0.000107637465,184,0,0,0,11076,3212
0.0274,0.0137,337.265749,-337.293768,0.64,0,140.927075,0.000108482466,184,0,0,0,1572,720
0.02804,0.01402,344.638863,-344.674948,0.64,0,145.044565,8.74038583e-05,184,0,0,0,1572,726
0.02868,0.01434,351.970499,-351.995994,0.64,0,149.437545,8.92887396e-05,184,0,0,0,1572,724
0.02932,0.01466,359.34441,-359.384122,0.64,0,153.821637,7.34950593e-05,184,0,0,0,1572,732
0.02996,0.01498,366.713375,-366.744742,1.28,0,158.396653,7.21259453e-05,184,0,0,0,1572,732
0.0306,0.0153,374.084084,-374.120476,0.64,0,164.919252,7.35576312e-05,220,0,0,0,11076,3277
0.03124,0.01562,381.404107,-381.440478,0.64,0,169.569622,8.12595046e-05,220,0,0,0,1572,744
0.03188,0.01594,388.762898,-388.806034,0.64,0,174.176628,7.31848365e-05,220,0,0,0,1572,741
0.03252,0.01626,396.12037,-396.163104,0.64,0,178.795051,7.48946922e-05,220,0,0,0,1572,743
0.03316,0.01658,403.48046,-403.523858,0.64,0,183.537943,7.70361828e-05,220,0,0,0,1572,749
0.0338,0.0169,410.832642,-410.874826,1.28,0,187.975592,7.84403954e-05,220,0,0,0,1572,756
0.03444,0.01722,418.184637,-418.231679,0.64,0,194.57924,7.95436356e-05,256,0,0,0,11076,3373
0.03508,0.01754,425.489455,-425.52548,0.64,0,199.434005,8.43383026e-05,256,0,0,0,1572,760
0.03572,0.01786,432.825964,-432.877905,0.64,0,204.284964,7.63893572e-05,256,0,0,0,1572,761
0.03636,0.01818,440.174414,-440.203818,0.64,0,209.186259,7.34952909e-05,256,0,0,0,1572,765
0.037,0.0185,447.525877,-447.559333,0.64,0,214.023999,7.2087297e-05,256,0,0,0,1572,763
0.03764,0.01882,454.855398,-454.880281,1.28,0,218.472575,7.20832925e-05,256,0,0,0,1572,762
0.03828,0.01914,462.153591,-462.176359,0.64,0,224.890996,8.04679381e-05,280,0,0,0,11076,3456
0.03892,0.01946,471.577485,-471.751566,0.64,1,233.257207,0.000611552979,312,0,0,0,7916,2298
0.03956,0.01978,479.088009,-479.617921,0.64,0,236.350797,0.000797457222,312,0,4,0,1572,760
0.0402,0.0201,486.134523,-486.542987,0.64,0,239.66219,0.000511350616,312,0,0,0,1572,767
0.04084,0.02042,492.902915,-493.234742,0.64,0,242.715219,0.000318239741,312,0,0,0,1572,805
0.04148,0.02074,499.890329,-500.102776,1.28,0,246.078362,0.000334141576,312,0,0,0,1572,820
0.04212,0.02106,507.097909,-507.302126,0.64,0,250.716617,0.000328408823,336,0,0,0,11076,3317
0.04276,0.02138,514.411311,-514.614908,0.64,0,254.072565,0.000295590394,336,0,0,0,1572,821
0.0434,0.0217,521.726259,-521.959497,0.64,0,257.286126,0.000243951716,336,0,0,0,1572,797
0.04404,0.02202,528.989303,-529.222199,0.64,0,260.721741,0.000213542246,336,0,0,0,1572,786
0.04468,0.02234,536.172817,-536.396427,0.64,0,264.106198,0.000199390253,336,0,0,0,1572,776
0.04532,0.02266,543.30585,-543.507662,1.28,0,267.598513,0.000191726642,336,0,0,0,1572,777
0.04596,0.02298,550.434264,-550.610707,0.64,0,272.116273,0.000184946947,348,0,0,0,11076,3137
0.0466,0.0233,557.559941,-557.687027,0.64,0,276.73757,0.000178461664,348,0,0,0,1568,774
0.04724,0.02362,564.675101,-564.782854,0.64,0,281.804361,0.000161339077,348,0,0,0,1568,773
0.04788,0.02394,575.194308,-575.42657,0.64,1,289.405445,0.000832965606,384,0,0,0,7904,2326
0.04852,0.02426,582.780369,-583.534739,0.64,0,292.005395,0.00106559805,384,0,4,0,1572,742
0.04916,0.02458,589.5023,-590.072476,1.28,0,294.69538,0.000687531547,384,0,0,0,1568,770
0.0498,0.0249,595.678094,-596.154026,0.64,0,298.326697,0.000398848449,396,0,0,0,11076,3362
0.05044,0.02522,602.264067,-602.565924,0.64,0,301.620312,0.000406079737,396,0,0,0,1572,854
0.05108,0.02554,609.306631,-609.515461,0.64,0,305.34693,0.000394900172,396,0,0,0,1572,849
0.05172,0.02586,616.506812,-616.69236,0.64,0,308.998515,0.000345246238,396,0,0,0,1572,842
0.05236,0.02618,623.665766,-623.833414,0.64,0,312.540747,0.000273068994,396,0,0,0,1576,827
0.053,0.0265,630.731235,-630.901603,1.28,0,316.175732,0.000198953648,396,0,0,0,1568,818
0.05364,0.02682,637.762545,-637.932554,0.64,0,320.685195,0.00016928695,408,0,0,0,11072,3254
0.05428,0.02714,644.819865,-644.951598,0.64,0,325.041024,0.000166156125,408,0,0,0,1568,790
0.05492,0.02746,651.894784,-651.989181,0.64,0,329.827851,0.000169452805,408,0,0,0,1568,793
0.05556,0.02778,662.970532,-663.168183,0.64,1,336.844864,0.000880870757,440,0,0,0,7904,2373
0.0562,0.0281,670.746939,-671.508064,0.64,0,339.028085,0.00113213619,440,0,4,0,1568,749
0.05684,0.02842,677.30748,-677.98816,1.28,0,341.649481,0.000762035909,440,0,0,0,1568,797
0.05748,0.02874,683.312005,-683.826128,0.64,0,345.255584,0.000455422564,452,0,0,0,11072,3479
0.05812,0.02906,689.669293,-690.043506,0.64,0,348.473081,0.000441854939,452,0,4,0,1572,896
0.05876,0.02938,696.620009,-696.923437,0.64,0,351.841459,0.000424903102,452,0,4,0,1580,878
0.0594,0.0297,703.79745,-704.083825,0.64,0,355.421962,0.000364773062,452,0,0,0,1576,874
0.06004,0.03002,710.931608,-711.216078,0.64,0,359.193462,0.00029522467,452,0,0,0,1572,857
0.06068,0.03034,717.981807,-718.242759,1.28,0,362.972972,0.000242880819,452,0,0,0,1568,849
0.06132,0.03066,724.973316,-725.222856,0.64,0,367.17183,0.00020668206,464,0,0,0,11072,3369
0.06196,0.03098,731.982237,-732.170954,0.64,0,371.43792,0.000195835675,464,0,0,0,1568,840
0.0626,0.0313,739.008993,-739.14263,0.64,0,376.307933,0.000193075841,464,0,0,0,1568,827
0.06324,0.03162,750.209076,-750.465278,0.64,1,383.880226,0.000865389328,496,0,0,0,7904,2466
0.06388,0.03194,758.061628,-758.837961,0.64,0,386.317766,0.0011114273,496,0,4,0,1568,768
0.06452,0.03226,764.527232,-765.225181,1.28,0,389.02165,0.000737520204,496,0,0,0,1568,822
0.06516,0.03258,770.37912,-770.919301,0.64,0,392.78159,0.000436333482,508,0,0,0,11072,3557
0.0658,0.0329,776.556836,-776.976011,0.64,0,396.182882,0.000440466788,508,0,0,0,1572,904
0.06644,0.03322,783.514727,-783.80555,0.64,0,399.797782,0.000446801265,508,0,0,0,1576,895
0.06708,0.03354,790.623182,-790.86984,0.64,0,403.326825,0.000375876667,508,0,4,0,1580,886
0.06772,0.03386,797.6403,-797.917483,0.64,0,407.209832,0.000300109738,508,0,0,0,1576,860
0.06836,0.03418,804.643528,-804.854985,1.28,0,411.658136,0.000240328271,508,0,0,0,1573,854
0.069,0.0345,811.514042,-811.750477,0.64,0,417.313228,0.00019784419,520,0,0,0,11080,3406
0.06964,0.03482,818.44999,-818.63859,0.64,0,422.014322,0.000181113677,520,0,0,0,1572,849
0.07028,0.03514,825.404508,-825.553947,0.64,0,426.768977,0.000177485566,520,0,0,0,1572,841
0.07092,0.03546,837.020985,-837.293679,0.64,1,433.703496,0.000920998787,552,0,0,0,7928,2520
0.07156,0.03578,845.027656,-845.865342,0.64,0,436.108149,0.0011940091,552,0,4,0,1568,797
0.0722,0.0361,851.397095,-852.154459,1.28,0,438.887102,0.000811780931,552,0,0,0,1568,830
0.07284,0.03642,856.998901,-857.641486,0.64,0,442.438915,0.000482373636,564,0,0,0,11072,3614
0.07348,0.03674,863.091906,-863.504677,0.64,0,445.923767,0.000459290858,564,0,0,0,1572,923
0.07412,0.03706,869.851598,-870.208553,0.64,0,449.585691,0.000462916535,564,0,0,0,1584,912
0.07476,0.03738,876.919934,-877.218554,0.64,0,453.167649,0.000395415063,564,0,4,0,1584,908
0.0754,0.0377,884.007745,-884.292731,0.64,0,457.002806,0.000330449568,564,0,0,0,1581,898
0.07604,0.03802,890.987639,-891.26953,1.28,0,461.157042,0.000265513845,564,0,0,0,1580,882
0.07668,0.03834,897.837695,-898.123856,0.64,0,466.553027,0.000220882222,576,0,0,0,11084,3468
0.07732,0.03866,904.673889,-904.926227,0.64,0,470.881247,0.000191513368,576,0,0,0,1576,864
0.07796,0.03898,915.624184,-916.205991,0.64,1,479.952102,0.000814983292,600,0,0,0,7922,2571
0.0786,0.0393,923.614168,-924.516606,0.64,0,483.334302,0.00106890048,600,0,4,0,1568,809
0.07924,0.03962,929.93943,-930.769585,0.64,0,487.406111,0.000721255245,600,0,0,0,1568,848
0.07988,0.03994,935.65508,-936.305059,1.28,0,491.560723,0.000430138365,600,0,0,0,1568,892
0.08052,0.04026,941.767592,-942.256673,0.64,0,496.637033,0.000414947029,612,0,0,0,11080,3719
0.08116,0.04058,948.515375,-948.881191,0.64,0,500.841654,0.000415390537,612,0,0,0,1584,917
0.0818,0.0409,955.595211,-955.907938,0.64,0,505.220034,0.000369316416,612,0,0,0,1588,909
0.08244,0.04122,962.655252,-962.95909,0.64,0,510.039722,0.00031360558,612,0,0,0,1584,900
0.08308,0.04154,969.560027,-969.863765,0.64,0,515.592319,0.000250597586,612,0,0,0,1579,879
0.08372,0.04186,976.343378,-976.653301,1.28,0,520.636064,0.000206077085,612,0,0,0,1576,875
0.08436,0.04218,983.158982,-983.429102,0.64,0,527.634125,0.000183017803,624,0,0,0,11080,3496
0.085,0.0425,995.248431,-995.770522,0.64,1,536.371559,0.00093218357,648,0,0,0,7928,2616
0.08564,0.04282,1003.58139,-1004.57201,0.64,0,539.45986,0.00120939976,648,0,4,0,1568,797
0.08628,0.04314,1009.88726,-1010.77054,0.64,0,542.969738,0.000838733322,648,0,0,0,1568,860
0.08692,0.04346,1015.22728,-1015.94618,0.64,0,546.723295,0.000509112827,648,0,0,0,1568,901
0.08756,0.04378,1020.90406,-1021.49092,1.28,0,550.900815,0.000480839223,648,0,0,0,1576,970
0.0882,0.0441,1027.52459,-1027.95744,0.64,0,556.556568,0.000496689061,660,0,0,0,11096,3893
0.08884,0.04442,1034.43671,-1034.82633,0.64,0,561.005015,0.000419191418,660,0,0,0,1588,951
0.08948,0.04474,1041.4164,-1041.79852,0.64,0,565.51146,0.000355210441,660,0,0,0,1588,936
0.09012,0.04506,1048.253,-1048.63045,0.64,0,570.267532,0.000292333387,660,0,4,0,1580,912
0.09076,0.04538,1054.99565,-1055.34128,0.64,0,575.231943,0.000246596881,660,0,0,0,1576,893
0.0914,0.0457,1061.64303,-1061.97582,1.28,0,580.430385,0.000210551003,660,0,0,0,1576,888
0.09204,0.04602,1072.44474,-1073.05008,0.64,1,589.579354,0.000750563736,688,0,0,0,17432,5285
0.09268,0.04634,1080.20807,-1081.20593,0.64,0,592.828016,0.00097772896,688,0,4,0,1568,823
0.09332,0.04666,1086.50139,-1087.33692,0.64,0,596.807094,0.000674626737,688,0,0,0,1568,867
0.09396,0.04698,1092.05885,-1092.72018,0.64,0,601.398153,0.000399758247,688,0,0,0,1568,892
0.0946,0.0473,1097.91108,-1098.4374,0.64,0,605.473823,0.000384450124,688,0,0,0,1580,936
0.09524,0.04762,1104.58565,-1104.95803,1.28,0,609.683994,0.000385907266,688,0,0,0,1591,942
0.09588,0.04794,1111.54245,-1111.85573,0.64,0,614.593155,0.000343827495,700,0,0,0,11092,3754
0.09652,0.04826,1118.45699,-1118.7619,0.64,0,618.524883,0.000295584206,700,0,0,0,1584,904
0.09716,0.04858,1125.21343,-1125.51749,0.64,0,622.486589,0.000241844039,700,0,0,0,1580,894
0.0978,0.0489,1131.86435,-1132.18729,0.64,0,626.616531,0.000199047472,700,0,0,0,1580,892
0.09844,0.04922,1143.50219,-1144.11733,0.64,1,633.138472,0.000865420134,724,0,0,0,7940,2686
0.09908,0.04954,1151.67706,-1152.73745,1.28,0,635.905437,0.00109365703,724,0,4,0,1568,843
0.09972,0.04986,1158.06508,-1158.88791,0.64,0,640.618312,0.000773508083,736,0,0,0,11072,3608
0.10036,0.05018,1163.37593,-1164.10386,0.64,0,644.687167,0.000466996934,736,0,0,0,1568,915
0.101,0.0505,1169.04006,-1169.62671,0.64,0,649.095931,0.000428208996,736,0,0,0,1578,988
0.10164,0.05082,1175.48951,-1175.93999,0.64,0,653.383878,0.000454892394,736,0,0,0,1592,999
0.10228,0.05114,1182.40386,-1182.76844,0.64,0,657.722522,0.000403668809,736,0,0,0,1588,968
0.10292,0.05146,1189.35674,-1189.71836,1.28,0,662.314616,0.000338082863,736,0,0,0,1584,947
0.10356,0.05178,1196.1164,-1196.48834,0.64,0,668.573345,0.000272574661,748,0,0,0,11087,3702
0.1042,0.0521,1202.73116,-1203.11213,0.64,0,673.60923,0.000228248735,748,0,0,0,1580,912
0.10484,0.05242,1210.89452,-1211.32613,0.64,1,681.900072,0.000233595192,756,0,0,0,7940,2718
0.10548,0.05274,1217.79247,-1218.38329,0.64,0,685.898635,0.000366997571,756,0,0,0,1576,890
0.10612,0.05306,1224.09095,-1224.58579,0.64,0,690.294689,0.000262258573,756,0,0,0,1572,896
0.10676,0.05338,1230.12131,-1230.52359,1.28,0,695.143626,0.000196019699,756,0,0,0,1576,896
0.1074,0.0537,1236.47735,-1236.72243,0.64,0,701.626208,0.000198842067,768,0,0,0,11086,3676
0.10804,0.05402,1248.61857,-1249.26142,0.64,1,708.676876,0.000907724655,784,0,0,0,7952,2728
0.10868,0.05434,1257.14329,-1258.2075,0.64,0,711.290847,0.00113581413,784,0,12,0,1568,844
0.10932,0.05466,1263.57651,-1264.45196,0.64,0,714.402191,0.000819341705,784,0,0,0,1568,872
0.10996,0.05498,1268.79676,-1269.49211,0.64,0,718.069011,0.00049866756,784,0,0,0,1568,939
0.1106,0.0553,1274.29199,-1274.93143,1.28,0,721.757518,0.000442551815,784,0,0,0,1580,1004
0.11124,0.05562,1280.71079,-1281.2086,0.64,0,726.117962,0.000480841011,796,0,0,0,11108,4152
0.11188,0.05594,1287.53619,-1288.02651,0.64,0,729.384408,0.000434311403,796,0,0,0,1584,993
0.11252,0.05626,1294.47069,-1294.90888,0.64,0,732.799838,0.000361815383,796,0,0,0,1584,973
0.11316,0.05658,1301.26739,-1301.73593,0.64,0,736.66287,0.000291937519,796,0,0,0,1584,955
0.1138,0.0569,1307.87745,-1308.32601,0.64,0,740.511954,0.000245103817,796,0,0,0,1580,926
0.11444,0.05722,1314.42033,-1314.8558,1.28,0,744.824048,0.000217637162,796,0,0,0,1580,923
0.11508,0.05754,1323.89099,-1324.46856,0.64,1,752.726451,0.000388095644,816,0,0,0,17447,5544
0.11572,0.05786,1331.23162,-1332.07447,0.64,0,756.06191,0.000557583428,816,0,4,0,1575,892
0.11636,0.05818,1337.40114,-1338.10566,0.64,0,759.578674,0.000398193312,816,0,0,0,1572,892
0.117,0.0585,1342.95806,-1343.56492,0.64,0,763.07284,0.000260456123,816,0,0,0,1576,924
0.11764,0.05882,1348.82432,-1349.27329,0.64,0,767.180694,0.000263189724,816,0,0,0,1584,953
0.11828,0.05914,1355.3229,-1355.67111,1.28,0,771.662982,0.000258210387,816,0,0,0,1584,943
0.11892,0.05946,1364.70949,-1365.1197,0.64,1,779.573791,0.000346428192,836,0,0,0,17458,5592
0.11956,0.05978,1372.14247,-1372.78903,0.64,0,782.585098,0.000511357168,836,0,4,0,1580,904
0.1202,0.0601,1378.42257,-1379.02726,0.64,0,786.105834,0.000373906813,836,0,0,0,1570,916
0.12084,0.06042,1384.21143,-1384.69235,0.64,0,789.768924,0.000231381198,836,0,0,0,1576,933
0.12148,0.06074,1390.14074,-1390.55608,0.64,0,793.949741,0.000257163944,836,0,0,0,1584,953
0.12212,0.06106,1396.57297,-1396.95292,1.28,0,798.354553,0.000284099538,836,0,0,0,1584,954
0.1234,0.0617,1413.14,-1413.0014,1.28,1,810.253479,0.000341428613,852,0,0,0,7916,2880
0.12468,0.06234,1427.26537,-1427.62457,1.28,1,822.557139,0.000445537637,868,0,0,0,7952,2844
0.12596,0.06298,1440.54651,-1440.8339,1.28,1,835.216066,0.000327522948,876,0,0,0,7928,2856
0.12724,0.06362,1453.14207,-1453.40396,1.28,1,847.73412,0.000253155004,892,0,0,0,7928,2868
0.12852,0.06426,1465.85618,-1466.14476,1.28,1,859.87577,0.000175206104,908,0,0,0,7940,2883
0.1298,0.0649,1478.75499,-1479.06446,2.56,1,872.19741,0.000192955368,916,0,0,0,7940,2904
0.13108,0.06554,1493.06529,-1493.13727,1.28,1,885.543539,0.00015100773,948,0,0,0,17456,5823
0.13236,0.06618,1506.44059,-1506.6762,1.28,1,898.343487,0.000227016153,956,0,0,0,7940,2880
0.13364,0.06682,1521.17819,-1521.12181,1.28,1,909.692986,0.000302558459,964,0,0,0,7940,2880
0.13492,0.06746,1535.27218,-1535.55304,1.28,1,921.55776,0.000441198751,972,0,0,0,7940,2868
0.1362,0.0681,1549.63638,-1550.02741,1.28,1,935.025669,0.000546903274,980,0,0,0,7940,2886
0.13748,0.06874,1562.68927,-1563.10718,2.56,1,947.558214,0.000514955305,988,0,0,0,7940,2916
0.13876,0.06938,1575.46719,-1575.798,1.28,1,961.037761,0.00034086751,1020,0,0,0,17468,6027
0.14004,0.07002,1588.30754,-1588.62963,1.28,1,973.284572,0.000314824503,1028,0,0,0,7940,3066
0.14132,0.07066,1601.57987,-1601.84403,1.28,1,985.912476,0.00033368002,1036,0,0,0,7940,3075
0.1426,0.0713,1614.79945,-1615.06433,1.28,1,998.308069,0.000449759678,1044,0,0,0,7940,3093
0.14388,0.07194,1628.17243,-1628.38677,1.28,1,1011.6442,0.000398048801,1052,0,0,0,7940,3021
0.14516,0.07258,1641.88572,-1642.16643,2.56,1,1024.24595,0.000237868487,1060,0,0,0,7940,2976
0.14644,0.07322,1655.30664,-1655.55936,1.28,1,1037.56224,0.000322529614,1092,0,0,0,17468,5988
0.14772,0.07386,1668.93287,-1669.19053,1.28,1,1050.41407,0.000192379472,1100,0,0,0,7940,2931
0.149,0.0745,1682.3944,-1682.77408,1.28,1,1063.05981,0.000155872783,1108,0,0,0,7940,2943
0.15028,0.07514,1695.90131,-1696.2952,1.28,1,1076.57031,0.000247979378,1116,0,0,0,7940,2955
0.15156,0.07578,1709.44043,-1709.72175,1.28,1,1090.0015,0.000254612942,1124,0,0,0,7940,2952
0.15284,0.07642,1722.39758,-1722.7526,2.56,1,1103.01688,0.000239977229,1132,0,0,0,7940,2952
0.15412,0.07706,1735.32262,-1735.75796,1.28,1,1116.80636,0.000230501711,1152,0,0,0,17456,5955
0.1554,0.0777,1748.73344,-1749.09365,1.28,1,1129.82083,0.000259600936,1160,0,0,0,7940,2958
0.15668,0.07834,1761.68938,-1762.08031,1.28,1,1142.72902,0.000239042228,1168,0,0,0,7940,2916
0.15796,0.07898,1774.08319,-1774.64382,1.28,1,1155.61981,0.000216744352,1184,0,0,0,7940,2925
0.15924,0.07962,1786.24915,-1786.96484,1.28,1,1167.47092,0.000192400519,1200,0,0,0,7940,2928
0.16052,0.08026,1799.66019,-1800.37488,2.56,1,1178.97559,0.000240018643,1216,0,0,0,7940,2934
0.1618,0.0809,1813.01557,-1813.48384,1.28,1,1192.21083,0.000219972573,1244,0,0,0,17468,5874
0.16308,0.08154,1825.63303,-1826.10054,1.28,1,1204.47536,0.000196831734,1260,0,0,0,7940,2904
0.16436,0.08218,1837.98521,-1838.511,1.28,1,1217.12377,0.000175264545,1276,0,0,0,7940,2940
0.16564,0.08282,1857.89604,-1858.0768,1.28,1,1229.00431,0.000948524464,1292,0,0,0,7940,2949
0.16692,0.08346,1873.06708,-1873.89583,1.28,1,1242.97657,0.0011906352,1308,0,12,0,7928,2832
0.1682,0.0841,1885.81594,-1886.66391,2.56,1,1257.66424,0.000905642152,1316,0,0,0,7928,2856
0.16948,0.08474,1897.08433,-1897.91511,1.28,1,1272.6352,0.00059997634,1336,0,0,0,17444,6183
0.17076,0.08538,1908.1984,-1909.08828,1.28,1,1284.85354,0.000412467306,1344,0,0,0,7940,3156
0.17204,0.08602,1920.32305,-1921.25365,1.28,1,1297.28282,0.000426061657,1360,0,0,0,7940,3249
0.17332,0.08666,1932.65752,-1933.54468,1.28,1,1310.04649,0.000602600982,1376,0,0,0,7952,3273
0.1746,0.0873,1946.45224,-1947.09195,1.28,1,1323.28562,0.000381406185,1392,0,0,0,7952,3222
0.17588,0.08794,1959.73604,-1960.37638,2.56,1,1338.48888,0.000369464037,1408,0,0,0,7940,3162
0.17716,0.08858,1972.94037,-1973.50282,1.28,1,1351.06123,0.000262048564,1436,0,0,0,17468,6342
0.17844,0.08922,1985.9557,-1986.28857,1.28,1,1362.70527,0.000315326583,1452,0,0,0,7940,3135
0.17972,0.08986,1998.49939,-1998.83971,1.28,1,1373.74656,0.000301779539,1476,0,0,0,7940,3144
0.181,0.0905,2010.43411,-2010.78398,1.28,1,1386.37862,0.000398016784,1500,0,0,0,7948,3150
0.18228,0.09114,2022.4428,-2022.76633,1.28,1,1399.19582,0.000370513246,1524,0,0,0,7940,3150
0.18356,0.09178,2034.21277,-2034.64455,2.56,1,1412.84873,0.000386099232,1548,0,0,0,7952,3123
0.18484,0.09242,2046.35254,-2046.61619,1.28,1,1427.54205,0.000414491087,1584,0,0,0,17480,6240
0.18612,0.09306,2058.9386,-2059.39971,1.28,1,1440.9383,0.00029281471,1612,0,0,0,7952,3090
0.1874,0.0937,2071.83346,-2072.25832,1.28,1,1456.96951,0.000281317723,1640,0,0,0,7956,2988
0.18868,0.09434,2084.34508,-2084.83152,1.28,1,1470.7552,0.000230616021,1668,0,0,0,7952,2964
0.18996,0.09498,2096.29836,-2097.14695,1.28,1,1483.56258,0.000254061636,1696,0,0,0,7952,2964
0.19124,0.09562,2109.79058,-2109.86367,2.56,1,1499.36317,0.000284492718,1722,0,0,0,7952,2976
0.19252,0.09626,2122.33361,-2122.51382,1.28,1,1514.78601,0.000338320378,1754,0,0,0,17462,5952
0.1938,0.0969,2134.38997,-2134.66697,1.28,1,1530.60103,0.000307024671,1774,0,0,0,7948,2952
0.19508,0.09754,2146.5988,-2146.93126,1.28,1,1546.08519,0.000266835079,1794,0,0,0,7948,2943
0.19636,0.09818,2159.53873,-2160.05937,1.28,1,1560.68742,0.00030633863,1814,0,0,0,7940,2982
0.19764,0.09882,2172.83859,-2173.34352,1.28,1,1577.06827,0.000378937443,1834,0,0,0,7940,2955
0.19892,0.09946,2185.6627,-2186.14791,2.56,1,1592.98841,0.000362490221,1850,0,0,0,7940,2979
0.2002,0.1001,2197.9653,-2198.4499,1.28,1,1609.59201,0.000333093701,1878,0,0,0,17444,6159
0.20148,0.10074,2209.4626,-2209.97686,1.28,1,1623.49483,0.000278809401,1898,0,0,0,7940,3108
0.20276,0.10138,2221.03343,-2221.61645,1.28,1,1636.61969,0.000269863463,1921,0,0,0,7940,3132
0.20404,0.10202,2233.12359,-2233.62278,1.28,1,1650.89525,0.000283322523,1945,0,0,0,7952,3192
0.20532,0.10266,2245.42349,-2246.03188,1.28,1,1665.12668,0.00028534707,1976,0,0,0,7952,3174
0.2066,0.1033,2258.1091,-2258.48621,2.56,1,1679.29064,0.000256857939,2016,0,0,0,7956,3171
0.20788,0.10394,2270.35126,-2270.85548,1.28,1,1693.70532,0.000231378371,2068,0,0,0,17484,6348
0.20916,0.10458,2282.66853,-2283.10001,1.28,1,1707.54761,0.000218173122,2116,0,0,0,7944,3141
0.2098,0.1049,2304.08818,-2304.19391,0.64,1,1717.10626,0.00210972717,2152,0,28,0,17634,6061
0.21044,0.10522,2321.64849,-2320.34446,0.64,0,1720.34197,0.00230118774,2152,0,28,0,1568,873
0.21108,0.10554,2328.5207,-2330.52623,0.64,0,1723.8888,0.00209819661,2152,0,12,0,1568,916
0.21172,0.10586,2332.72119,-2334.94863,0.64,0,1727.06453,0.00168838629,2152,0,12,0,1568,1124
0.21236,0.10618,2333.70725,-2336.62469,0.64,0,1729.86284,0.00102201084,2152,0,20,0,1572,1326
0.213,0.1065,2337.15722,-2339.96968,1.28,0,1734.06108,0.00101375986,2152,0,20,0,1584,1392
0.21428,0.10714,2353.67631,-2355.405,1.28,1,1747.02234,0.00125995609,2168,0,24,0,7940,3927
0.21556,0.10778,2370.24508,-2372.55461,1.28,0,1753.83189,0.00117054125,2168,0,12,0,1600,1276
0.21684,0.10842,2383.74446,-2390.34019,1.28,0,1760.92577,0.00113695505,2168,0,12,0,1594,1247
0.21748,0.10874,2392.59893,-2397.0799,0.64,0,1766.29864,0.000931430142,2180,0,32,0,11246,4920
0.21812,0.10906,2397.61715,-2403.043,0.64,0,1770.3939,0.0010506142,2180,0,20,0,1592,1180
0.21876,0.10938,2411.21036,-2413.04813,0.64,1,1776.29563,0.00153331718,2188,0,24,0,7952,3396
0.2194,0.1097,2414.50678,-2419.50611,0.64,0,1779.02171,0.00116284914,2188,0,4,0,1572,1090
0.22004,0.11002,2420.53674,-2423.96618,0.64,0,1782.10587,0.00110710383,2188,0,8,0,1572,1057
0.22036,0.11018,2422.31075,-2425.40711,0.32,0,1785.46835,0.000818650158,2200,0,48,0,11160,4336
0.22068,0.11034,2420.14126,-2425.85677,0.32,0,1787.24798,0.000839329316,2200,0,8,0,1588,1060
0.221,0.1105,2424.15413,-2426.57307,0.32,0,1789.10754,0.000835441002,2200,0,24,0,1586,1013
0.22132,0.11066,2431.42056,-2432.23303,0.32,0,1790.45286,0.00106476362,2200,0,25,0,1592,948
0.22164,0.11082,2430.64257,-2434.53256,0.32,0,1791.92083,0.000778906917,2200,0,40,0,1584,889
0.22196,0.11098,2430.65183,-2437.99599,0.64,0,1793.84507,0.000768908804,2200,0,24,0,1588,878
0.2226,0.1113,2451.33731,-2457.6324,0.64,1,1799.28349,0.00222343401,2216,0,88,0,7904,2620
0.22324,0.11162,2467.85172,-2472.53193,0.64,0,1802.21685,0.00323790163,2216,0,55,0,1572,688
0.22388,0.11194,2475.35268,-2477.3701,0.64,0,1805.13029,0.00279440232,2216,0,36,0,1568,743
0.22452,0.11226,2475.5261,-2477.46608,0.64,0,1808.85546,0.00199855427,2216,0,15,0,1568,941
0.22516,0.11258,2469.40349,-2478.25276,0.64,0,1812.93728,0.00148518149,2216,0,17,0,1568,1187
0.22548,0.11274,2475.80816,-2478.85838,0.32,0,1817.01918,0.00126463687,2228,0,56,0,11200,4978
0.2258,0.1129,2476.35137,-2480.45193,0.32,0,1818.83216,0.00116145613,2228,0,8,0,1587,1220
0.22612,0.11306,2478.04189,-2481.10348,0.32,0,1820.77355,0.00106798218,2228,0,34,0,1612,1116
0.22644,0.11322,2478.99321,-2481.4906,0.32,0,1822.98848,0.00104507836,2228,0,26,0,1604,1076
0.22676,0.11338,2483.03229,-2484.95681,0.32,1,1827.22532,0.00103747227,2248,0,54,0,7964,3156
0.22708,0.11354,2484.67423,-2486.37715,0.64,0,1828.67019,0.00105946913,2248,0,20,0,1580,968
0.22772,0.11386,2499.74452,-2508.25696,0.64,1,1833.91341,0.0015584899,2270,0,111,0,7908,2840
0.22836,0.11418,2521.0114,-2526.71475,0.64,1,1840.42179,0.00333049223,2282,0,220,0,7904,2124
0.229,0.1145,2525.64033,-2531.40766,0.64,0,1842.61579,0.00356669045,2282,0,16,0,1568,649
0.22932,0.11466,2523.7135,-2527.24463,0.32,1,1847.71492,0.00257006153,2287,0,132,0,17408,3861
0.22964,0.11482,2517.95571,-2520.76848,0.32,0,1850.60953,0.00153865279,2287,0,38,0,1568,1066
0.22966,0.11483,2512.43242,-2517.44594,0.02,0,1855.27735,0.000845570499,2318,0,390,0,42690,14314
0.22968,0.11484,2508.22414,-2511.96151,0.02,0,1855.61854,0.000667185758,2318,0,426,0,1585,753
0.2297,0.11485,2502.16288,-2505.63111,0.02,0,1855.98102,0.000610652204,2318,0,390,0,1622,748
0.22972,0.11486,2495.21853,-2498.05129,0.02,0,1856.41484,0.000597745264,2318,0,359,0,1640,584
0.22972125,0.114860625,2493.36893,-2496.1941,0.00125,0,1857.51288,0.000428774446,2350,0,1547,0,40364,5654
0.2297225,0.11486125,2488.84137,-2492.73776,0.00125,0,1857.62715,0.000365822455,2350,0,253,0,1584,113
