# ADR90 WP-A2 tau=0 band, build 37d0891acb80c9194f7e10b4fd5b486f6aee8951 (expected any), leg h1.0_e0.6944
s_m,s_over_B,q_foot_kPa,q_base_kPa,ds_mm,relaxed,wall_s,implex_err_avg,implex_refusals,guard_floor,guard_f0,guard_hold,guard_res,guard_ctlf,substeps_tot,substeps_max,substeps_max_ele,substeps_ring_tot,substeps_ring_max,wall_step_s
2e-05,1e-05,0.785411966,-0.788336654,0.02,0,0.0759048462,0,0,0,0,0,0,0,0,0,0,0,0,0.0759048462
4e-05,2e-05,1.53457116,-1.53503867,0.02,0,0.220540047,0,0,0,0,0,0,0,0,0,0,0,0,0.144635201
6e-05,3e-05,2.26495377,-2.26571482,0.02,0,0.409300089,0,0,0,0,0,0,0,0,0,0,0,0,0.188760042
8e-05,4e-05,2.97944654,-2.98053776,0.02,0,0.615089178,0,0,0,0,0,0,0,0,0,0,0,0,0.205789089
0.0001,5e-05,3.68082713,-3.68216314,0.02,0,0.799255848,0,0,0,0,0,0,0,0,0,0,0,0,0.18416667
0.00012,6e-05,4.37094499,-4.37274035,0.04,0,1.01901269,0,0,0,0,0,0,0,0,0,0,0,0,0.219756842
0.00016,8e-05,5.70624544,-5.7119643,0.04,0,1.30406046,0,0,0,0,0,0,0,0,0,0,0,0,0.28504777
0.0002,0.0001,7.01015721,-7.01759791,0.04,0,1.59062696,0,0,0,0,0,0,0,0,0,0,0,0,0.286566496
0.00024,0.00012,8.2880576,-8.29837407,0.04,0,1.95434928,0,0,0,0,0,0,0,0,0,0,0,0,0.363722324
0.00028,0.00014,9.54586813,-9.56026735,0.04,0,2.32390547,0,0,0,0,0,0,0,0,0,0,0,0,0.369556189
0.00032,0.00016,10.785937,-10.786261,0.04,0,2.85021639,0,0,0,0,0,0,0,0,0,0,0,0,0.526310921
0.00036,0.00018,12.0058125,-12.0253348,0.08,0,3.22008896,0,0,0,0,0,0,0,0,0,0,0,0,0.36987257
0.00044,0.00022,14.3670838,-14.3754675,0.08,0,3.79209042,0,0,0,0,0,0,0,0,0,0,0,0,0.572001457
0.00048,0.00024,15.5548117,-15.5556331,0.04,0,5.46636462,0,0,0,0,0,0,0,0,0,0,0,0,1.67427421
0.00052,0.00026,16.724669,-16.7257992,0.04,0,5.91640162,0,0,0,0,0,0,0,0,0,0,0,0,0.450037003
0.00056,0.00028,17.8836625,-17.8856276,0.04,0,6.44828367,0,0,0,0,0,0,0,0,0,0,0,0,0.531882048
0.0006,0.0003,19.0337868,-19.0349146,0.04,0,6.97700477,0,0,0,0,0,0,0,0,0,0,0,0,0.528721094
0.00064,0.00032,20.1739182,-20.1754651,0.04,0,7.53150082,0,0,0,0,0,0,0,0,0,0,0,0,0.55449605
0.00068,0.00034,21.3059029,-21.3075384,0.08,0,8.0767417,0,0,0,0,0,0,0,0,0,0,0,0,0.545240879
0.00072,0.00036,22.4291563,-22.4302414,0.04,0,10.1640506,0,0,0,0,0,0,0,0,0,0,0,0,2.08730888
0.00076,0.00038,23.5443773,-23.5464729,0.04,0,10.8675787,0,0,0,0,0,0,0,0,0,0,0,0,0.703528166
0.0008,0.0004,24.6494385,-24.6591467,0.04,0,11.8559344,0,0,0,0,0,0,0,0,0,0,0,0,0.988355637
0.00084,0.00042,25.7549026,-25.7574473,0.04,0,12.5962069,0,0,0,0,0,0,0,0,0,0,0,0,0.740272522
0.00088,0.00044,26.8504396,-26.8531828,0.04,0,13.1677315,0,0,0,0,0,0,0,0,0,0,0,0,0.57152462
0.00092,0.00046,27.9395819,-27.9433863,0.08,0,13.658448,0,0,0,0,0,0,0,0,0,0,0,0,0.490716457
0.00096,0.00048,29.023742,-29.0267566,0.04,0,15.4368112,0,0,0,0,0,0,0,0,0,0,0,0,1.77836323
0.001,0.0005,30.1028278,-30.1042652,0.04,0,16.2166276,0,0,0,0,0,0,0,0,0,0,0,0,0.779816389
0.00104,0.00052,31.1731408,-31.1812223,0.04,0,16.7519345,0,0,0,0,0,0,0,0,0,0,0,0,0.535306931
0.00108,0.00054,32.2455964,-32.2451704,0.04,0,17.3302245,0,0,0,0,0,0,0,0,0,0,0,0,0.578289986
0.0011,0.00055,32.7760996,-32.7841271,0.02,0,18.4258976,0,0,0,0,0,0,0,0,0,0,0,0,1.09567308
0.00112,0.00056,33.3098911,-33.3180301,0.02,0,18.7397962,0,0,0,0,0,0,0,0,0,0,0,0,0.313898563
0.00114,0.00057,33.8363193,-33.8511984,0.02,0,19.1000311,0,0,0,0,0,0,0,0,0,0,0,0,0.360234976
0.00116,0.00058,34.3719156,-34.3806516,0.02,0,19.4616117,0,0,0,0,0,0,0,0,0,0,0,0,0.36158061
0.00118,0.00059,34.8967682,-34.9121579,0.02,0,19.7979093,0,0,0,0,0,0,0,0,0,0,0,0,0.336297512
0.0012,0.0006,35.4306411,-35.4392007,0.04,0,20.2980361,0,0,0,0,0,0,0,0,0,0,0,0,0.500126839
0.00122,0.00061,35.9578972,-35.9665042,0.02,0,21.3351731,0,0,0,0,0,0,0,0,0,0,0,0,1.03713703
0.00124,0.00062,36.4849343,-36.4935529,0.02,0,21.6915131,0,0,0,0,0,0,0,0,0,0,0,0,0.356339931
0.00126,0.00063,37.0107013,-37.0191278,0.02,0,22.079561,0,0,0,0,0,0,0,0,0,0,0,0,0.388047934
0.00128,0.00064,37.5355271,-37.5435974,0.02,0,22.3896976,0,0,0,0,0,0,0,0,0,0,0,0,0.310136557
0.0013,0.00065,38.0558519,-38.0686323,0.02,0,22.7465215,0,0,0,0,0,0,0,0,0,0,0,0,0.356823921
0.00132,0.00066,38.5874393,-38.5871504,0.04,0,23.2333958,0,0,0,0,0,0,0,0,0,0,0,0,0.486874342
0.00136,0.00068,39.6282561,-39.6268981,0.04,0,24.1841903,0,0,0,0,0,0,0,0,0,0,0,0,0.950794458
0.0014,0.0007,40.6657645,-40.6625526,0.04,0,25.0245299,0,0,0,0,0,0,0,0,0,0,0,0,0.840339661
0.00144,0.00072,41.6998188,-41.6993966,0.04,0,25.9774084,0,0,0,0,0,0,0,0,0,0,0,0,0.952878475
0.00148,0.00074,42.7248307,-42.7250053,0.04,0,26.855751,0,0,0,0,0,0,0,0,0,0,0,0,0.878342628
0.00152,0.00076,43.7531013,-43.7519531,0.04,0,27.8702116,0,0,0,0,0,0,0,0,0,0,0,0,1.01446056
0.00154,0.00077,44.2543649,-44.2727635,0.02,0,29.1992934,0,0,0,0,0,0,0,0,0,0,0,0,1.32908177
0.00156,0.00078,44.7769521,-44.7772582,0.02,0,29.7078075,0,0,0,0,0,0,0,0,0,0,0,0,0.508514166
0.00158,0.00079,45.2893654,-45.2896656,0.02,0,30.1807244,0,0,0,0,0,0,0,0,0,0,0,0,0.472916842
0.0016,0.0008,45.8007537,-45.8011064,0.02,0,30.7365804,0,0,0,0,0,0,0,0,0,0,0,0,0.555855989
0.00162,0.00081,46.3114975,-46.3117359,0.02,0,31.2318792,0,0,0,0,0,0,0,0,0,0,0,0,0.495298862
0.00164,0.00082,46.8213803,-46.8216159,0.04,0,31.8496578,0,0,0,0,0,0,0,0,0,0,0,0,0.61777854
0.00166,0.00083,47.317419,-47.3369371,0.02,0,33.4559243,0,0,0,0,0,0,0,0,0,0,0,0,1.6062665
0.00168,0.00084,47.8321426,-47.8409682,0.02,0,33.8410876,0,0,0,0,0,0,0,0,0,0,0,0,0.385163307
0.0017,0.00085,48.345099,-48.3454622,0.02,0,34.4905226,0,0,0,0,0,0,0,0,0,0,0,0,0.649435043
0.00172,0.00086,48.8530038,-48.853345,0.02,0,35.1466238,0,0,0,0,0,0,0,0,0,0,0,0,0.656101227
0.00174,0.00087,49.3598277,-49.360205,0.02,0,36.014782,0,0,0,0,0,0,0,0,0,0,0,0,0.868158102
0.00176,0.00088,49.8656091,-49.8658717,0.04,0,36.628449,0,0,0,0,0,0,0,0,0,0,0,0,0.613667011
0.00178,0.00089,50.3570749,-50.3764542,0.02,0,38.2706099,0,0,0,0,0,0,0,0,0,0,0,0,1.64216089
0.0018,0.0009,50.8745436,-50.8748195,0.02,0,38.7805357,0,0,0,0,0,0,0,0,0,0,0,0,0.509925842
0.00182,0.00091,51.3789163,-51.3791937,0.02,0,39.3599792,0,0,0,0,0,0,0,0,0,0,0,0,0.579443455
0.00184,0.00092,51.8825917,-51.8828985,0.02,0,39.8862066,0,0,0,0,0,0,0,0,0,0,0,0,0.526227474
0.00186,0.00093,52.3855114,-52.3858887,0.02,0,40.4842615,0,0,0,0,0,0,0,0,0,0,0,0,0.598054886
0.00188,0.00094,52.8877602,-52.8881113,0.04,0,41.0159125,0,0,0,0,0,0,0,0,0,0,0,0,0.53165102
0.0019,0.00095,53.389521,-53.3892111,0.02,0,42.8519437,0,0,0,0,0,0,0,0,0,0,0,0,1.8360312
0.00192,0.00096,53.8903519,-53.8907931,0.02,0,43.3976688,0,0,0,0,0,0,0,0,0,0,0,0,0.545725107
0.00194,0.00097,54.3908478,-54.3911531,0.02,0,44.0687225,0,0,0,0,0,0,0,0,0,0,0,0,0.671053648
0.00196,0.00098,54.8907603,-54.8912208,0.02,0,44.5712867,0,0,0,0,0,0,0,0,0,0,0,0,0.502564192
0.00198,0.00099,55.390285,-55.3904819,0.02,0,45.0821061,0,0,0,0,0,0,0,0,0,0,0,0,0.510819435
0.002,0.001,55.8891245,-55.889427,0.04,0,45.6525002,0,0,0,0,0,0,0,0,0,0,0,0,0.570394039
0.00204,0.00102,56.8839602,-56.881535,0.04,0,46.7076178,0,0,0,0,0,0,0,0,0,0,0,0,1.05511761
0.00206,0.00103,57.3792101,-57.3789622,0.02,0,48.3384192,0,0,0,0,0,0,0,0,0,0,0,0,1.63080144
0.00208,0.00104,57.8761881,-57.876613,0.02,0,48.9111052,0,0,0,0,0,0,0,0,0,0,0,0,0.572685957
0.0021,0.00105,58.372671,-58.3732298,0.02,0,49.421844,0,0,0,0,0,0,0,0,0,0,0,0,0.51073885
0.00212,0.00106,58.8685898,-58.8691636,0.02,0,50.0571558,0,0,0,0,0,0,0,0,0,0,0,0,0.635311842
0.00214,0.00107,59.3640508,-59.3644699,0.02,0,50.5669441,0,0,0,0,0,0,0,0,0,0,0,0,0.509788275
0.00216,0.00108,59.8590176,-59.8593654,0.04,0,51.2180569,0,0,0,0,0,0,0,0,0,0,0,0,0.651112795
0.0022,0.0011,60.8426079,-60.8439078,0.04,0,51.9338791,0,0,0,0,0,0,0,0,0,0,0,0,0.71582222
0.00224,0.00112,61.8267278,-61.8291642,0.04,0,52.674473,0,0,0,0,0,0,0,0,0,0,0,0,0.74059391
0.00228,0.00114,62.8095062,-62.811373,0.04,0,54.4750509,0,0,0,0,0,0,0,0,0,0,0,0,1.80057788
0.00232,0.00116,63.7948461,-63.7922343,0.04,0,56.6721551,0,0,0,0,0,0,0,0,0,0,0,0,2.19710422
0.00236,0.00118,64.774058,-64.7730293,0.04,0,57.3977709,0,0,0,0,0,0,0,0,0,0,0,0,0.72561574
0.0024,0.0012,65.7483205,-65.748877,0.08,0,58.2464406,0,0,0,0,0,0,0,0,0,0,0,0,0.848669767
0.00244,0.00122,66.7274641,-66.7236711,0.04,0,60.9915872,0,0,0,0,0,0,0,0,0,0,0,0,2.74514651
0.00248,0.00124,67.6996049,-67.69822,0.04,0,61.7234733,0,0,0,0,0,0,0,0,0,0,0,0,0.731886148
0.00252,0.00126,68.6728974,-68.671908,0.04,0,62.4368429,0,0,0,0,0,0,0,0,0,0,0,0,0.713369608
0.00256,0.00128,69.6439781,-69.643105,0.04,0,63.2278118,0,0,0,0,0,0,0,0,0,0,0,0,0.790968895
0.0026,0.0013,70.6117419,-70.6136366,0.04,0,64.0179222,0,0,0,0,0,0,0,0,0,0,0,0,0.79011035
0.00264,0.00132,71.5835073,-71.5833384,0.08,0,64.8135974,0,0,0,0,0,0,0,0,0,0,0,0,0.795675278
0.00268,0.00134,72.5515218,-72.5505805,0.04,0,67.1551404,0,0,0,0,0,0,0,0,0,0,0,0,2.34154296
0.00272,0.00136,73.5167972,-73.5168626,0.04,0,67.9841902,0,0,0,0,0,0,0,0,0,0,0,0,0.829049826
0.00276,0.00138,74.4825743,-74.4818137,0.04,0,68.825105,0,0,0,0,0,0,0,0,0,0,0,0,0.840914726
0.0028,0.0014,75.4448357,-75.4467064,0.04,0,69.588079,0,0,0,0,0,0,0,0,0,0,0,0,0.762974024
0.00284,0.00142,76.408077,-76.4103957,0.04,0,70.3214509,0,0,0,0,0,0,0,0,0,0,0,0,0.733371973
0.00288,0.00144,77.3717268,-77.3723237,0.08,0,71.0851774,0,0,0,0,0,0,0,0,0,0,0,0,0.763726473
0.00292,0.00146,78.3299162,-78.3314006,0.04,0,73.2974002,0,0,0,0,0,0,0,0,0,0,0,0,2.21222281
0.00296,0.00148,79.2826614,-79.2919579,0.04,0,74.0786467,0,0,0,0,0,0,0,0,0,0,0,0,0.781246424
0.003,0.0015,80.2470745,-80.2489214,0.04,0,74.7050002,0,0,0,0,0,0,0,0,0,0,0,0,0.626353502
0.00304,0.00152,81.2047367,-81.2046299,0.04,0,75.483206,0,0,0,0,0,0,0,0,0,0,0,0,0.778205872
0.00308,0.00154,82.1610421,-82.1612036,0.04,0,76.2751026,0,0,0,0,0,0,0,0,0,0,0,0,0.791896582
0.00312,0.00156,83.1153051,-83.1172809,0.08,0,77.0653036,0,0,0,0,0,0,0,0,0,0,0,0,0.790200949
0.00316,0.00158,84.0679097,-84.0721717,0.04,0,79.3188303,0,0,0,0,0,0,0,0,0,0,0,0,2.25352669
0.0032,0.0016,85.0221313,-85.0227713,0.04,0,80.2253625,0,0,0,0,0,0,0,0,0,0,0,0,0.906532288
0.00324,0.00162,85.9749084,-85.9763203,0.04,0,81.0444863,0,0,0,0,0,0,0,0,0,0,0,0,0.819123745
0.00328,0.00164,86.9241454,-86.9280104,0.04,0,81.7633851,0,0,0,0,0,0,0,0,0,0,0,0,0.718898773
0.00332,0.00166,87.8742406,-87.8774926,0.04,0,82.509928,0,0,0,0,0,0,0,0,0,0,0,0,0.746542931
0.00336,0.00168,88.826019,-88.8262937,0.08,0,83.1663947,0,0,0,0,0,0,0,0,0,0,0,0,0.656466722
0.0034,0.0017,89.774633,-89.7747552,0.04,0,85.4052238,0,0,0,0,0,0,0,0,0,0,0,0,2.23882914
0.00344,0.00172,90.7206985,-90.7249129,0.04,0,86.0499222,0,0,0,0,0,0,0,0,0,0,0,0,0.644698381
0.00348,0.00174,91.6678605,-91.6721444,0.04,0,86.7285392,0,0,0,0,0,0,0,0,0,0,0,0,0.678617001
0.00352,0.00176,92.6154791,-92.6154734,0.04,0,87.3574107,0,0,0,0,0,0,0,0,0,0,0,0,0.628871441
0.00356,0.00178,93.5608243,-93.5603437,0.04,0,88.0754087,0,0,0,0,0,0,0,0,0,0,0,0,0.717998028
0.0036,0.0018,94.5047332,-94.5051042,0.08,0,88.9991415,0,0,0,0,0,0,0,0,0,0,0,0,0.923732758
0.00364,0.00182,95.4489131,-95.4495101,0.04,0,91.4000733,0,0,0,0,0,0,0,0,0,0,0,0,2.40093184
0.00368,0.00184,96.3934003,-96.3924026,0.04,0,92.139226,0,0,0,0,0,0,0,0,0,0,0,0,0.73915267
0.00372,0.00186,97.3367693,-97.3389943,0.04,0,92.9907396,0,0,0,0,0,0,0,0,0,0,0,0,0.851513624
0.00376,0.00188,98.2751475,-98.2763564,0.04,0,93.8189788,0,0,0,0,0,0,0,0,0,0,0,0,0.828239202
0.0038,0.0019,99.216314,-99.2176477,0.04,0,94.7502732,0,0,0,0,0,0,0,0,0,0,0,0,0.931294441
0.00384,0.00192,100.156636,-100.158508,0.08,0,95.8127372,0,0,0,0,0,0,0,0,0,0,0,0,1.062464
0.00388,0.00194,101.45276,-101.412696,0.04,1,100.760184,0,0,0,0,0,0,0,0,0,0,0,0,4.94744706
0.00392,0.00196,102.201667,-102.232252,0.04,1,102.632883,0,0,0,0,0,0,0,0,0,0,0,0,1.87269878
0.00396,0.00198,103.113939,-103.149526,0.04,1,106.827292,0,0,0,0,0,0,0,0,0,0,0,0,4.19440889
0.004,0.002,103.896592,-103.894907,0.04,0,107.790351,0,0,0,0,0,0,0,0,0,0,0,0,0.963059425
0.00404,0.00202,104.84347,-104.844947,0.04,0,108.773536,0,0,0,0,0,0,0,0,0,0,0,0,0.983184814
0.00406,0.00203,105.309646,-105.310109,0.02,0,110.718347,0,0,0,0,0,0,0,0,0,0,0,0,1.94481063
0.00408,0.00204,105.779271,-105.779558,0.02,0,111.200085,0,0,0,0,0,0,0,0,0,0,0,0,0.481738567
0.0041,0.00205,106.248279,-106.248639,0.02,0,111.644799,0,0,0,0,0,0,0,0,0,0,0,0,0.444713116
0.00412,0.00206,106.717098,-106.717419,0.02,0,112.093531,0,0,0,0,0,0,0,0,0,0,0,0,0.448732376
0.00414,0.00207,107.185709,-107.186024,0.02,0,112.536722,0,0,0,0,0,0,0,0,0,0,0,0,0.443190813
0.00416,0.00208,107.654157,-107.654475,0.04,0,113.012684,0,0,0,0,0,0,0,0,0,0,0,0,0.4759624
0.0042,0.0021,108.589022,-108.586932,0.04,0,114.000001,0,0,0,0,0,0,0,0,0,0,0,0,0.987316847
0.00424,0.00212,109.890716,-109.866665,0.04,1,117.020581,0,0,0,0,0,0,0,0,0,0,0,0,3.02058005
0.00426,0.00213,109.976198,-109.980495,0.02,0,119.096613,0,0,0,0,0,0,0,0,0,0,0,0,2.07603168
0.00428,0.00214,110.452151,-110.452951,0.02,0,119.673232,0,0,0,0,0,0,0,0,0,0,0,0,0.576619148
0.0043,0.00215,110.924759,-110.92598,0.02,0,120.226426,0,0,0,0,0,0,0,0,0,0,0,0,0.553194523
0.00432,0.00216,111.397415,-111.398487,0.02,0,120.866395,0,0,0,0,0,0,0,0,0,0,0,0,0.639968872
0.00434,0.00217,111.870012,-111.870886,0.02,0,121.539447,0,0,0,0,0,0,0,0,0,0,0,0,0.673051357
0.00436,0.00218,112.342093,-112.34287,0.04,0,122.2368,0,0,0,0,0,0,0,0,0,0,0,0,0.697353363
0.00438,0.00219,112.813682,-112.81442,0.02,0,123.7522,0,0,0,0,0,0,0,0,0,0,0,0,1.51539993
0.0044,0.0022,113.284953,-113.285659,0.02,0,124.186602,0,0,0,0,0,0,0,0,0,0,0,0,0.434402227
0.00442,0.00221,113.756102,-113.756651,0.02,0,124.626779,0,0,0,0,0,0,0,0,0,0,0,0,0.440176725
0.00444,0.00222,114.226792,-114.22732,0.02,0,125.064867,0,0,0,0,0,0,0,0,0,0,0,0,0.438088417
0.00446,0.00223,114.697188,-114.6977,0.02,0,125.502137,0,0,0,0,0,0,0,0,0,0,0,0,0.437269449
0.00448,0.00224,115.167301,-115.167797,0.04,0,125.928537,0,0,0,0,0,0,0,0,0,0,0,0,0.426399946
0.00452,0.00226,116.104801,-116.10424,0.04,0,126.950147,0,0,0,0,0,0,0,0,0,0,0,0,1.0216105
0.00454,0.00227,116.574293,-116.574805,0.02,0,128.533449,0,0,0,0,0,0,0,0,0,0,0,0,1.58330178
0.00456,0.00228,117.043522,-117.044125,0.02,0,128.99762,0,0,0,0,0,0,0,0,0,0,0,0,0.464171171
0.00458,0.00229,117.512465,-117.513019,0.02,0,129.423072,0,0,0,0,0,0,0,0,0,0,0,0,0.425451517
0.0046,0.0023,117.981004,-117.981599,0.02,0,130.056594,0,0,0,0,0,0,0,0,0,0,0,0,0.633522511
0.00462,0.00231,118.449403,-118.449994,0.02,0,130.932226,0,0,0,0,0,0,0,0,0,0,0,0,0.875632048
0.00464,0.00232,118.917534,-118.918057,0.04,0,131.701882,0,0,0,0,0,0,0,0,0,0,0,0,0.769655943
0.00468,0.00234,119.853959,-119.851237,0.04,0,133.633831,0,0,0,0,0,0,0,0,0,0,0,0,1.93194914
0.00472,0.00236,120.789441,-120.791853,0.04,0,134.899674,0,0,0,0,0,0,0,0,0,0,0,0,1.26584268
0.00476,0.00238,121.718803,-121.718117,0.04,0,136.44075,0,0,0,0,0,0,0,0,0,0,0,0,1.54107642
0.0048,0.0024,122.650693,-122.652797,0.04,0,137.919563,0,0,0,0,0,0,0,0,0,0,0,0,1.47881269
0.00484,0.00242,123.582212,-123.580593,0.04,0,139.489798,0,0,0,0,0,0,0,0,0,0,0,0,1.57023525
0.00488,0.00244,124.801929,-124.83221,0.08,1,142.037474,0,0,0,0,0,0,0,0,0,0,0,0,2.54767609
0.00492,0.00246,125.435389,-125.437074,0.04,0,145.185079,0,0,0,0,0,0,0,0,0,0,0,0,3.1476047
0.00494,0.00247,125.904374,-125.905239,0.02,0,147.046257,0,0,0,0,0,0,0,0,0,0,0,0,1.86117768
0.00496,0.00248,126.37139,-126.372408,0.02,0,147.736243,0,0,0,0,0,0,0,0,0,0,0,0,0.689985752
0.00498,0.00249,126.837632,-126.838392,0.02,0,148.165401,0,0,0,0,0,0,0,0,0,0,0,0,0.429157972
0.005,0.0025,127.303051,-127.303778,0.02,0,148.622584,0,0,0,0,0,0,0,0,0,0,0,0,0.457183361
0.00502,0.00251,127.768041,-127.768754,0.02,0,149.054373,0,0,0,0,0,0,0,0,0,0,0,0,0.431789398
0.00504,0.00252,128.232769,-128.233475,0.04,0,149.653782,0,0,0,0,0,0,0,0,0,0,0,0,0.599409103
0.00506,0.00253,128.697323,-128.698023,0.02,0,151.225744,0,0,0,0,0,0,0,0,0,0,0,0,1.57196116
0.00508,0.00254,129.161608,-129.162354,0.02,0,151.737822,0,0,0,0,0,0,0,0,0,0,0,0,0.512078524
0.0051,0.00255,129.625755,-129.626533,0.02,0,152.252247,0,0,0,0,0,0,0,0,0,0,0,0,0.514424562
0.00512,0.00256,130.089797,-130.09058,0.02,0,152.791264,0,0,0,0,0,0,0,0,0,0,0,0,0.539017439
0.00514,0.00257,130.553806,-130.554537,0.02,0,153.428034,0,0,0,0,0,0,0,0,0,0,0,0,0.636770248
0.00516,0.00258,131.017608,-131.018343,0.04,0,153.952138,0,0,0,0,0,0,0,0,0,0,0,0,0.524103642
0.0052,0.0026,131.943792,-131.942681,0.04,0,155.210467,0,0,0,0,0,0,0,0,0,0,0,0,1.25832891
0.00524,0.00262,132.86962,-132.868672,0.04,0,156.354544,0,0,0,0,0,0,0,0,0,0,0,0,1.14407706
0.00528,0.00264,133.794156,-133.7946,0.04,0,157.830992,0,0,0,0,0,0,0,0,0,0,0,0,1.47644806
0.00532,0.00266,134.719498,-134.72021,0.04,0,159.274199,0,0,0,0,0,0,0,0,0,0,0,0,1.44320726
0.00534,0.00267,135.181269,-135.182354,0.02,0,160.995394,0,0,0,0,0,0,0,0,0,0,0,0,1.72119498
0.00536,0.00268,135.644506,-135.645154,0.02,0,161.544866,0,0,0,0,0,0,0,0,0,0,0,0,0.549472094
0.00538,0.00269,136.107117,-136.107704,0.02,0,162.151801,0,0,0,0,0,0,0,0,0,0,0,0,0.606934547
0.0054,0.0027,136.569498,-136.570105,0.02,0,162.629691,0,0,0,0,0,0,0,0,0,0,0,0,0.477890015
0.00542,0.00271,137.031764,-137.032393,0.02,0,163.139167,0,0,0,0,0,0,0,0,0,0,0,0,0.509475946
0.00544,0.00272,137.493945,-137.494578,0.04,0,163.676045,0,0,0,0,0,0,0,0,0,0,0,0,0.536878347
0.00548,0.00274,138.419244,-138.425152,0.04,0,164.867634,0,0,0,0,0,0,0,0,0,0,0,0,1.19158888
0.00552,0.00276,139.340989,-139.344146,0.04,0,166.147357,0,0,0,0,0,0,0,0,0,0,0,0,1.27972317
0.00556,0.00278,140.262279,-140.261008,0.04,0,167.453215,0,0,0,0,0,0,0,0,0,0,0,0,1.30585766
0.0056,0.0028,141.184262,-141.186943,0.04,0,168.587773,0,0,0,0,0,0,0,0,0,0,0,0,1.13455772
0.00564,0.00282,142.105338,-142.105734,0.04,0,169.678404,0,0,0,0,0,0,0,0,0,0,0,0,1.09063125
0.00568,0.00284,143.029284,-143.033855,0.08,0,170.750001,0,0,0,0,0,0,0,0,0,0,0,0,1.07159758
0.00576,0.00288,145.209142,-145.264551,0.08,1,173.930751,0,0,0,0,0,0,0,0,0,0,0,0,3.18074965
0.00578,0.00289,145.353982,-145.354498,0.02,0,182.085389,0,0,0,0,0,0,0,0,0,0,0,0,8.15463805
0.0058,0.0029,145.812114,-145.814273,0.02,0,182.613573,0,0,0,0,0,0,0,0,0,0,0,0,0.528184175
0.00582,0.00291,146.272433,-146.274212,0.02,0,183.086768,0,0,0,0,0,0,0,0,0,0,0,0,0.473194838
0.00584,0.00292,146.733999,-146.735746,0.02,0,183.551225,0,0,0,0,0,0,0,0,0,0,0,0,0.464456558
0.00586,0.00293,147.196261,-147.197988,0.02,0,183.981442,0,0,0,0,0,0,0,0,0,0,0,0,0.430217028
0.00588,0.00294,147.65925,-147.660985,0.04,0,184.489008,0,0,0,0,0,0,0,0,0,0,0,0,0.50756669
0.0059,0.00295,148.122479,-148.124144,0.02,0,186.271547,0,0,0,0,0,0,0,0,0,0,0,0,1.78253889
0.00592,0.00296,148.586075,-148.587749,0.02,0,186.901842,0,0,0,0,0,0,0,0,0,0,0,0,0.630295038
0.00594,0.00297,149.049701,-149.051594,0.02,0,187.462924,0,0,0,0,0,0,0,0,0,0,0,0,0.561081886
0.00596,0.00298,149.513375,-149.515068,0.02,0,188.039707,0,0,0,0,0,0,0,0,0,0,0,0,0.576782465
0.00598,0.00299,149.977165,-149.978791,0.02,0,188.46604,0,0,0,0,0,0,0,0,0,0,0,0,0.426332951
0.006,0.003,150.440823,-150.442361,0.04,0,188.899986,0,0,0,0,0,0,0,0,0,0,0,0,0.433946133
0.00604,0.00302,151.370048,-151.374707,0.04,0,190.146362,0,0,0,0,0,0,0,0,0,0,0,0,1.24637628
0.00608,0.00304,152.293577,-152.29458,0.04,0,191.596483,0,0,0,0,0,0,0,0,0,0,0,0,1.4501214
0.0061,0.00305,152.754897,-152.756556,0.02,0,193.390895,0,0,0,0,0,0,0,0,0,0,0,0,1.79441142
0.00612,0.00306,153.218041,-153.219417,0.02,0,193.891227,0,0,0,0,0,0,0,0,0,0,0,0,0.50033164
0.00614,0.00307,153.680617,-153.682029,0.02,0,194.476013,0,0,0,0,0,0,0,0,0,0,0,0,0.584786415
0.00616,0.00308,154.143185,-154.14458,0.02,0,194.96428,0,0,0,0,0,0,0,0,0,0,0,0,0.488266945
0.00618,0.00309,154.605668,-154.607048,0.02,0,195.616481,0,0,0,0,0,0,0,0,0,0,0,0,0.652201176
0.0062,0.0031,155.068039,-155.069412,0.04,0,196.125664,0,0,0,0,0,0,0,0,0,0,0,0,0.509182453
0.00624,0.00312,155.993629,-155.996587,0.04,0,197.308051,0,0,0,0,0,0,0,0,0,0,0,0,1.18238783
0.00628,0.00314,156.915277,-156.912532,0.04,0,198.438081,0,0,0,0,0,0,0,0,0,0,0,0,1.13002968
0.0063,0.00315,157.375583,-157.377424,0.02,0,200.208963,0,0,0,0,0,0,0,0,0,0,0,0,1.77088237
0.00632,0.00316,157.837925,-157.839257,0.02,0,200.709047,0,0,0,0,0,0,0,0,0,0,0,0,0.500083208
0.00634,0.00317,158.299464,-158.300951,0.02,0,201.374865,0,0,0,0,0,0,0,0,0,0,0,0,0.665818453
0.00636,0.00318,158.761025,-158.76243,0.02,0,201.92956,0,0,0,0,0,0,0,0,0,0,0,0,0.554694891
0.00638,0.00319,159.22247,-159.223799,0.02,0,202.432344,0,0,0,0,0,0,0,0,0,0,0,0,0.502783775
0.0064,0.0032,159.683657,-159.685135,0.04,0,202.977325,0,0,0,0,0,0,0,0,0,0,0,0,0.544981718
0.00642,0.00321,160.144818,-160.146312,0.02,0,204.558051,0,0,0,0,0,0,0,0,0,0,0,0,1.58072591
0.00644,0.00322,160.606014,-160.607409,0.02,0,205.058137,0,0,0,0,0,0,0,0,0,0,0,0,0.500086069
0.00646,0.00323,161.066601,-161.068495,0.02,0,205.621402,0,0,0,0,0,0,0,0,0,0,0,0,0.563264847
0.00648,0.00324,161.527449,-161.529422,0.02,0,206.13673,0,0,0,0,0,0,0,0,0,0,0,0,0.515327454
0.0065,0.00325,161.98878,-161.990106,0.02,0,206.693155,0,0,0,0,0,0,0,0,0,0,0,0,0.556424856
0.00652,0.00326,162.449439,-162.451197,0.04,0,207.184127,0,0,0,0,0,0,0,0,0,0,0,0,0.490972519
0.00654,0.00327,162.910265,-162.911734,0.02,0,208.774653,0,0,0,0,0,0,0,0,0,0,0,0,1.59052563
0.00656,0.00328,163.370832,-163.372493,0.02,0,209.400868,0,0,0,0,0,0,0,0,0,0,0,0,0.626215219
0.00658,0.00329,163.831379,-163.833041,0.02,0,209.870548,0,0,0,0,0,0,0,0,0,0,0,0,0.469679594
0.0066,0.0033,164.291805,-164.293486,0.02,0,210.439162,0,0,0,0,0,0,0,0,0,0,0,0,0.568614721
0.00662,0.00331,164.752142,-164.753853,0.02,0,211.067107,0,0,0,0,0,0,0,0,0,0,0,0,0.627944469
0.00664,0.00332,165.212424,-165.214135,0.04,0,211.510243,0,0,0,0,0,0,0,0,0,0,0,0,0.443135977
0.00668,0.00334,166.13619,-166.139868,0.04,0,212.843914,0,0,0,0,0,0,0,0,0,0,0,0,1.33367133
0.00672,0.00336,167.24853,-167.296112,0.04,1,214.995672,0,0,0,0,0,0,0,0,0,0,0,0,2.15175796
0.00674,0.00337,167.502818,-167.510782,0.02,0,216.782744,0,0,0,0,0,0,0,0,0,0,0,0,1.78707218
0.00676,0.00338,167.965859,-167.968564,0.02,0,217.210548,0,0,0,0,0,0,0,0,0,0,0,0,0.427803516
0.00678,0.00339,168.427508,-168.429422,0.02,0,217.740121,0,0,0,0,0,0,0,0,0,0,0,0,0.529573441
0.0068,0.0034,168.888579,-168.890413,0.02,0,218.176568,0,0,0,0,0,0,0,0,0,0,0,0,0.436446428
0.00682,0.00341,169.349807,-169.351481,0.02,0,218.666703,0,0,0,0,0,0,0,0,0,0,0,0,0.490135431
0.00684,0.00342,169.81061,-169.812221,0.04,0,219.282559,0,0,0,0,0,0,0,0,0,0,0,0,0.615855694
0.00688,0.00344,171.353728,-171.389783,0.04,1,220.99791,0,0,0,0,0,0,0,0,0,0,0,0,1.71535134
0.0069,0.00345,171.188479,-171.189505,0.02,0,223.09443,0,0,0,0,0,0,0,0,0,0,0,0,2.09651995
0.00692,0.00346,171.655049,-171.659678,0.02,0,223.635401,0,0,0,0,0,0,0,0,0,0,0,0,0.540971518
0.00694,0.00347,172.124169,-172.126269,0.02,0,224.13162,0,0,0,0,0,0,0,0,0,0,0,0,0.496218443
0.00696,0.00348,172.590988,-172.593277,0.02,0,224.672729,0,0,0,0,0,0,0,0,0,0,0,0,0.541108847
0.00698,0.00349,173.057425,-173.059439,0.02,0,225.34883,0,0,0,0,0,0,0,0,0,0,0,0,0.676100731
0.007,0.0035,173.523707,-173.525447,0.04,0,225.976713,0,0,0,0,0,0,0,0,0,0,0,0,0.627883673
0.00704,0.00352,174.454295,-174.456237,0.04,0,227.601461,0,0,0,0,0,0,0,0,0,0,0,0,1.62474823
0.00708,0.00354,175.385817,-175.382053,0.04,0,228.963752,0,0,0,0,0,0,0,0,0,0,0,0,1.36229014
0.00712,0.00356,176.311424,-176.310606,0.04,0,230.024934,0,0,0,0,0,0,0,0,0,0,0,0,1.06118202
0.00716,0.00358,177.238242,-177.23543,0.04,0,231.095772,0,0,0,0,0,0,0,0,0,0,0,0,1.07083797
0.0072,0.0036,178.16867,-178.165486,0.04,0,233.587764,0,0,0,0,0,0,0,0,0,0,0,0,2.49199271
0.00724,0.00362,179.089224,-179.088085,0.08,0,234.783033,0,0,0,0,0,0,0,0,0,0,0,0,1.19526839
0.00728,0.00364,180.015009,-180.012589,0.04,0,237.914296,0,0,0,0,0,0,0,0,0,0,0,0,3.13126349
0.00732,0.00366,180.938222,-180.939136,0.04,0,239.208739,0,0,0,0,0,0,0,0,0,0,0,0,1.29444289
0.00736,0.00368,181.861055,-181.858521,0.04,0,240.358198,0,0,0,0,0,0,0,0,0,0,0,0,1.14945912
0.00738,0.00369,182.32065,-182.322761,0.02,0,242.050119,0,0,0,0,0,0,0,0,0,0,0,0,1.69192076
0.0074,0.0037,182.783316,-182.784472,0.02,0,242.579924,0,0,0,0,0,0,0,0,0,0,0,0,0.529804707
0.00742,0.00371,183.24502,-183.246289,0.02,0,243.156107,0,0,0,0,0,0,0,0,0,0,0,0,0.576183319
0.00744,0.00372,183.70662,-183.707923,0.02,0,243.643577,0,0,0,0,0,0,0,0,0,0,0,0,0.48747015
0.00746,0.00373,184.168098,-184.169402,0.02,0,244.168403,0,0,0,0,0,0,0,0,0,0,0,0,0.524825811
0.00748,0.00374,184.629553,-184.630771,0.04,0,244.667976,0,0,0,0,0,0,0,0,0,0,0,0,0.499573231
0.00752,0.00376,185.550759,-185.551363,0.04,0,246.720215,0,0,0,0,0,0,0,0,0,0,0,0,2.0522387
0.00756,0.00378,186.477547,-186.473109,0.04,0,248.09033,0,0,0,0,0,0,0,0,0,0,0,0,1.37011504
0.0076,0.0038,187.798984,-187.817275,0.04,1,250.342207,0,0,0,0,0,0,0,0,0,0,0,0,2.25187755
0.00762,0.00381,187.84027,-187.839674,0.02,0,254.520282,0,0,0,0,0,0,0,0,0,0,0,0,4.17807484
0.00764,0.00382,188.301649,-188.305902,0.02,0,255.095813,0,0,0,0,0,0,0,0,0,0,0,0,0.575530767
0.00766,0.00383,188.766385,-188.768996,0.02,0,255.69129,0,0,0,0,0,0,0,0,0,0,0,0,0.595477343
0.00768,0.00384,189.229247,-189.232759,0.02,0,256.204478,0,0,0,0,0,0,0,0,0,0,0,0,0.513187885
0.0077,0.00385,189.692904,-189.695566,0.02,0,256.770197,0,0,0,0,0,0,0,0,0,0,0,0,0.565718412
0.00772,0.00386,190.155389,-190.158658,0.04,0,257.300422,0,0,0,0,0,0,0,0,0,0,0,0,0.530225277
0.00776,0.00388,191.08196,-191.081128,0.04,0,258.678045,0,0,0,0,0,0,0,0,0,0,0,0,1.37762332
0.0078,0.0039,192.0091,-192.005448,0.04,0,259.85276,0,0,0,0,0,0,0,0,0,0,0,0,1.17471504
0.00784,0.00392,192.932649,-192.932113,0.04,0,262.697019,0,0,0,0,0,0,0,0,0,0,0,0,2.84425831
0.00788,0.00394,194.192397,-194.215923,0.04,1,265.979253,0,0,0,0,0,0,0,0,0,0,0,0,3.28223419
0.0079,0.00395,194.310689,-194.310394,0.02,0,268.598021,0,0,0,0,0,0,0,0,0,0,0,0,2.61876822
0.00792,0.00396,194.770522,-194.772545,0.02,0,269.133121,0,0,0,0,0,0,0,0,0,0,0,0,0.535100222
0.00794,0.00397,195.230284,-195.231902,0.02,0,269.703591,0,0,0,0,0,0,0,0,0,0,0,0,0.570470095
0.00796,0.00398,195.689857,-195.694101,0.02,0,270.254813,0,0,0,0,0,0,0,0,0,0,0,0,0.551221609
0.00798,0.00399,196.150399,-196.156689,0.02,0,270.780272,0,0,0,0,0,0,0,0,0,0,0,0,0.525458574
0.008,0.004,196.610986,-196.614921,0.04,0,271.312912,0,0,0,0,0,0,0,0,0,0,0,0,0.532640696
0.00804,0.00402,197.5195,-197.525501,0.04,1,275.708331,0,0,0,0,0,0,0,0,0,0,0,0,4.39541864
0.00808,0.00404,198.45156,-198.448018,0.04,0,278.316634,0,0,0,0,0,0,0,0,0,0,0,0,2.60830307
0.00812,0.00406,199.80296,-199.825612,0.04,1,283.584634,0,0,0,0,0,0,0,0,0,0,0,0,5.26800036
0.00816,0.00408,200.270189,-200.268947,0.04,0,286.09389,0,0,0,0,0,0,0,0,0,0,0,0,2.50925541
0.00818,0.00409,200.724667,-200.740719,0.02,0,287.880365,0,0,0,0,0,0,0,0,0,0,0,0,1.78647542
0.0082,0.0041,201.198313,-201.203223,0.02,0,288.353195,0,0,0,0,0,0,0,0,0,0,0,0,0.472830057
0.00822,0.00411,201.662186,-201.665442,0.02,0,288.947372,0,0,0,0,0,0,0,0,0,0,0,0,0.594176769
0.00824,0.00412,202.11693,-202.130375,0.02,0,289.432783,0,0,0,0,0,0,0,0,0,0,0,0,0.485410929
0.00826,0.00413,202.588121,-202.591942,0.02,0,289.923258,0,0,0,0,0,0,0,0,0,0,0,0,0.490475178
0.00828,0.00414,203.049142,-203.055738,0.04,0,290.465878,0,0,0,0,0,0,0,0,0,0,0,0,0.54262042
0.00832,0.00416,204.355275,-204.375222,0.04,1,293.532809,0,0,0,0,0,0,0,0,0,0,0,0,3.06693101
0.00836,0.00418,204.866126,-204.878149,0.04,1,300.78643,0,0,0,0,0,0,0,0,0,0,0,0,7.25362015
0.0084,0.0042,206.165704,-206.193229,0.04,1,302.750779,0,0,0,0,0,0,0,0,0,0,0,0,1.96434951
0.00844,0.00422,207.373763,-207.366436,0.04,1,306.306298,0,0,0,0,0,0,0,0,0,0,0,0,3.5555191
0.00848,0.00424,207.635771,-207.63609,0.04,0,310.559647,0,0,0,0,0,0,0,0,0,0,0,0,4.25334859
0.0085,0.00425,208.096737,-208.104219,0.02,0,312.535959,0,0,0,0,0,0,0,0,0,0,0,0,1.97631168
0.00852,0.00426,208.558325,-208.565855,0.02,0,313.258716,0,0,0,0,0,0,0,0,0,0,0,0,0.722757578
0.00854,0.00427,209.02391,-209.030251,0.02,0,313.714638,0,0,0,0,0,0,0,0,0,0,0,0,0.45592165
0.00856,0.00428,209.487319,-209.491454,0.02,0,314.287983,0,0,0,0,0,0,0,0,0,0,0,0,0.573345661
0.00858,0.00429,209.949756,-209.953831,0.02,0,314.869415,0,0,0,0,0,0,0,0,0,0,0,0,0.581431866
0.0086,0.0043,210.411565,-210.415238,0.04,0,315.438892,0,0,0,0,0,0,0,0,0,0,0,0,0.569477081
0.00864,0.00432,211.3409,-211.334918,0.04,0,319.036362,0,0,0,0,0,0,0,0,0,0,0,0,3.59746957
0.00868,0.00434,212.255576,-212.255519,0.04,0,322.660381,0,0,0,0,0,0,0,0,0,0,0,0,3.62401891
0.00872,0.00436,213.179847,-213.177262,0.04,0,330.312725,0,0,0,0,0,0,0,0,0,0,0,0,7.65234375
0.00876,0.00438,214.093939,-214.097011,0.04,0,335.419249,0,0,0,0,0,0,0,0,0,0,0,0,5.10652399
0.0088,0.0044,215.596707,-215.644097,0.04,1,337.399432,0,0,0,0,0,0,0,0,0,0,0,0,1.98018384
0.00884,0.00442,216.25919,-216.214653,0.08,1,339.547816,0,0,0,0,0,0,0,0,0,0,0,0,2.14838362
0.00886,0.00443,216.422645,-216.421854,0.02,0,344.349614,0,0,0,0,0,0,0,0,0,0,0,0,4.80179834
0.00888,0.00444,216.885841,-216.885359,0.02,0,345.129287,0,0,0,0,0,0,0,0,0,0,0,0,0.779672623
0.0089,0.00445,217.349392,-217.354187,0.02,0,345.608464,0,0,0,0,0,0,0,0,0,0,0,0,0.479177475
0.00892,0.00446,217.814525,-217.818814,0.02,0,346.09435,0,0,0,0,0,0,0,0,0,0,0,0,0.485885143
0.00894,0.00447,218.280821,-218.284483,0.02,0,346.653138,0,0,0,0,0,0,0,0,0,0,0,0,0.558788061
0.00896,0.00448,218.746109,-218.749815,0.04,0,347.267391,0,0,0,0,0,0,0,0,0,0,0,0,0.614253521
0.009,0.0045,220.17142,-220.108275,0.04,1,349.579405,0,0,0,0,0,0,0,0,0,0,0,0,2.31201386
0.00904,0.00452,220.597127,-220.596679,0.04,0,357.089867,0,0,0,0,0,0,0,0,0,0,0,0,7.51046228
0.00908,0.00454,222.226083,-222.241915,0.04,1,359.258222,0,0,0,0,0,0,0,0,0,0,0,0,2.16835451
0.00912,0.00456,222.405189,-222.421678,0.04,1,361.739977,0,0,0,0,0,0,0,0,0,0,0,0,2.48175502
0.00916,0.00458,223.6125,-223.705204,0.04,1,363.947412,0,0,0,0,0,0,0,0,0,0,0,0,2.20743513
0.0092,0.0046,224.858543,-224.832777,0.08,1,366.436749,0,0,0,0,0,0,0,0,0,0,0,0,2.48933649
0.00924,0.00462,225.829499,-225.743194,0.04,1,371.95515,0,0,0,0,0,0,0,0,0,0,0,0,5.51840186
0.00928,0.00464,226.649954,-226.669521,0.04,1,374.400306,0,0,0,0,0,0,0,0,0,0,0,0,2.4451561
0.00932,0.00466,227.680122,-227.606821,0.04,1,377.214448,0,0,0,0,0,0,0,0,0,0,0,0,2.81414175
0.00936,0.00468,227.994249,-227.993246,0.04,0,380.67826,0,0,0,0,0,0,0,0,0,0,0,0,3.46381164
0.0094,0.0047,229.063155,-229.156466,0.04,1,387.159937,0,0,0,0,0,0,0,0,0,0,0,0,6.48167682
0.00944,0.00472,230.332571,-230.30895,0.08,1,389.579837,0,0,0,0,0,0,0,0,0,0,0,0,2.41990066
0.00948,0.00474,231.193465,-231.114303,0.04,1,395.105776,0,0,0,0,0,0,0,0,0,0,0,0,5.52593899
0.0095,0.00475,231.253838,-231.253886,0.02,0,397.260545,0,0,0,0,0,0,0,0,0,0,0,0,2.15476894
0.00952,0.00476,231.715354,-231.714537,0.02,0,398.020577,0,0,0,0,0,0,0,0,0,0,0,0,0.7600317
0.00954,0.00477,232.177511,-232.176982,0.02,0,398.701412,0,0,0,0,0,0,0,0,0,0,0,0,0.680835485
0.00956,0.00478,232.639401,-232.644975,0.02,0,399.237389,0,0,0,0,0,0,0,0,0,0,0,0,0.535976171
0.00958,0.00479,233.103733,-233.107988,0.02,0,399.678995,0,0,0,0,0,0,0,0,0,0,0,0,0.441606045
0.0096,0.0048,233.566768,-233.572449,0.04,0,400.144334,0,0,0,0,0,0,0,0,0,0,0,0,0.465339184
0.00964,0.00482,235.099428,-235.081134,0.04,1,405.076782,0,0,0,0,0,0,0,0,0,0,0,0,4.93244839
0.00968,0.00484,235.383197,-235.394671,0.04,1,407.449571,0,0,0,0,0,0,0,0,0,0,0,0,2.37278891
0.00972,0.00486,236.320413,-236.325995,0.04,1,411.847511,0,0,0,0,0,0,0,0,0,0,0,0,4.39793968
0.00974,0.00487,236.792454,-236.79611,0.02,0,419.968151,0,0,0,0,0,0,0,0,0,0,0,0,8.12064052
0.00976,0.00488,237.259725,-237.264349,0.02,0,420.425705,0,0,0,0,0,0,0,0,0,0,0,0,0.457553625
0.00978,0.00489,237.723116,-237.72728,0.02,0,420.966748,0,0,0,0,0,0,0,0,0,0,0,0,0.541043282
0.0098,0.0049,238.188506,-238.193442,0.02,0,421.458982,0,0,0,0,0,0,0,0,0,0,0,0,0.492233992
0.00982,0.00491,238.651846,-238.656138,0.02,0,421.942911,0,0,0,0,0,0,0,0,0,0,0,0,0.483928919
0.00984,0.00492,239.115845,-239.121126,0.04,0,422.532746,0,0,0,0,0,0,0,0,0,0,0,0,0.58983469
0.00988,0.00494,240.642333,-240.634273,0.04,1,426.447943,0,0,0,0,0,0,0,0,0,0,0,0,3.9151969
0.00992,0.00496,240.938864,-240.948871,0.04,1,428.858848,0,0,0,0,0,0,0,0,0,0,0,0,2.4109056
0.00996,0.00498,241.88724,-241.88637,0.04,0,432.778211,0,0,0,0,0,0,0,0,0,0,0,0,3.91936302
0.01,0.005,243.319573,-243.360232,0.04,1,435.439564,0,0,0,0,0,0,0,0,0,0,0,0,2.66135216
0.01004,0.00502,243.703882,-243.713967,0.04,1,437.598323,0,0,0,0,0,0,0,0,0,0,0,0,2.15875912
0.01006,0.00503,244.185061,-244.184145,0.02,0,440.4421,0,0,0,0,0,0,0,0,0,0,0,0,2.84377742
0.01008,0.00504,244.649387,-244.648799,0.02,0,441.50467,0,0,0,0,0,0,0,0,0,0,0,0,1.06256962
0.0101,0.00505,245.110641,-245.115217,0.02,0,442.088838,0,0,0,0,0,0,0,0,0,0,0,0,0.584168196
0.01012,0.00506,245.578272,-245.577787,0.02,0,442.885992,0,0,0,0,0,0,0,0,0,0,0,0,0.797154188
0.01014,0.00507,246.04205,-246.041575,0.02,0,443.561818,0,0,0,0,0,0,0,0,0,0,0,0,0.675825834
0.01016,0.00508,246.503965,-246.508731,0.04,0,444.029243,0,0,0,0,0,0,0,0,0,0,0,0,0.467425108
0.0102,0.0051,247.432166,-247.438124,0.04,0,448.648443,0,0,0,0,0,0,0,0,0,0,0,0,4.61919999
0.01024,0.00512,248.351426,-248.36151,0.04,0,454.429726,0,0,0,0,0,0,0,0,0,0,0,0,5.78128266
0.01028,0.00514,249.279234,-249.277082,0.04,0,456.911248,0,0,0,0,0,0,0,0,0,0,0,0,2.48152232
0.01032,0.00516,250.202995,-250.200253,0.04,0,467.73324,0,0,0,0,0,0,0,0,0,0,0,0,10.8219922
0.01036,0.00518,251.126689,-251.124202,0.04,0,473.849445,0,0,0,0,0,0,0,0,0,0,0,0,6.11620522
0.0104,0.0052,252.575038,-252.700575,0.08,1,477.165778,0,0,0,0,0,0,0,0,0,0,0,0,3.31633306
0.01048,0.00524,253.965648,-253.925912,0.08,1,485.89278,0,0,0,0,0,0,0,0,0,0,0,0,8.72700167
0.01056,0.00528,255.718474,-255.724534,0.08,1,494.431934,0,0,0,0,0,0,0,0,0,0,0,0,8.53915358
0.0106,0.0053,257.101107,-257.075559,0.04,1,502.115124,0,0,0,0,0,0,0,0,0,0,0,0,7.68319011
0.01064,0.00532,257.854683,-257.828607,0.04,1,504.458079,0,0,0,0,0,0,0,0,0,0,0,0,2.34295559
0.01066,0.00533,258.022332,-258.020489,0.02,0,508.955048,0,0,0,0,0,0,0,0,0,0,0,0,4.49696875
0.01068,0.00534,258.485624,-258.485997,0.02,0,509.620736,0,0,0,0,0,0,0,0,0,0,0,0,0.665687561
0.0107,0.00535,258.949567,-258.950221,0.02,0,510.470146,0,0,0,0,0,0,0,0,0,0,0,0,0.849410772
0.01072,0.00536,259.41353,-259.425614,0.02,0,511.042093,0,0,0,0,0,0,0,0,0,0,0,0,0.571946859
0.01074,0.00537,259.880584,-259.88107,0.02,0,511.840793,0,0,0,0,0,0,0,0,0,0,0,0,0.798699379
0.01076,0.00538,260.345005,-260.345106,0.04,0,512.775377,0,0,0,0,0,0,0,0,0,0,0,0,0.934584141
0.0108,0.0054,261.62901,-261.693962,0.04,1,516.274442,0,0,0,0,0,0,0,0,0,0,0,0,3.49906516
0.01084,0.00542,262.198184,-262.203581,0.04,0,518.306487,0,0,0,0,0,0,0,0,0,0,0,0,2.03204465
0.01088,0.00544,263.125334,-263.121625,0.04,0,525.154479,0,0,0,0,0,0,0,0,0,0,0,0,6.84799242
0.01092,0.00546,264.0572,-264.052664,0.04,0,527.247089,0,0,0,0,0,0,0,0,0,0,0,0,2.09261012
0.01096,0.00548,265.4073,-265.471739,0.04,1,531.523823,0,0,0,0,0,0,0,0,0,0,0,0,4.27673435
0.011,0.0055,265.903588,-265.910208,0.08,0,535.284147,0,0,0,0,0,0,0,0,0,0,0,0,3.76032352
0.01104,0.00552,266.831965,-266.826393,0.04,0,546.278179,0,0,0,0,0,0,0,0,0,0,0,0,10.9940319
0.01108,0.00554,267.755088,-267.752357,0.04,0,551.085277,0,0,0,0,0,0,0,0,0,0,0,0,4.80709815
0.01112,0.00556,269.012234,-269.07951,0.04,1,552.961681,0,0,0,0,0,0,0,0,0,0,0,0,1.87640381
0.01116,0.00558,269.93686,-269.929107,0.04,1,555.513695,0,0,0,0,0,0,0,0,0,0,0,0,2.55201435
0.0112,0.0056,270.542343,-270.543444,0.04,0,558.1454,0,0,0,0,0,0,0,0,0,0,0,0,2.63170433
0.01124,0.00562,271.468088,-271.464571,0.08,0,560.527529,0,0,0,0,0,0,0,0,0,0,0,0,2.38212943
0.01132,0.00566,273.294298,-273.344454,0.08,1,567.686167,0,0,0,0,0,0,0,0,0,0,0,0,7.15863848
0.01134,0.00567,273.750691,-273.750662,0.02,0,572.709119,0,0,0,0,0,0,0,0,0,0,0,0,5.02295113
0.01136,0.00568,274.222125,-274.221778,0.02,0,573.355673,0,0,0,0,0,0,0,0,0,0,0,0,0.646554232
0.01138,0.00569,274.687608,-274.687178,0.02,0,573.97972,0,0,0,0,0,0,0,0,0,0,0,0,0.624047518
0.0114,0.0057,275.150658,-275.150398,0.02,0,574.604906,0,0,0,0,0,0,0,0,0,0,0,0,0.625185251
0.01142,0.00571,275.613812,-275.613541,0.02,0,575.311227,0,0,0,0,0,0,0,0,0,0,0,0,0.706321716
0.01144,0.00572,276.076193,-276.076003,0.04,0,575.9773,0,0,0,0,0,0,0,0,0,0,0,0,0.666073084
0.01148,0.00574,277.70474,-277.78313,0.04,1,577.787881,0,0,0,0,0,0,0,0,0,0,0,0,1.81058025
0.01152,0.00576,277.881591,-277.893585,0.04,1,594.310425,0,0,0,0,0,0,0,0,0,0,0,0,16.5225444
0.01156,0.00578,279.072151,-279.107211,0.04,1,596.959993,0,0,0,0,0,0,0,0,0,0,0,0,2.6495676
0.01158,0.00579,279.305723,-279.305209,0.02,0,601.921655,0,0,0,0,0,0,0,0,0,0,0,0,4.96166277
0.0116,0.0058,279.77194,-279.771535,0.02,0,602.686558,0,0,0,0,0,0,0,0,0,0,0,0,0.764902115
0.01162,0.00581,280.239874,-280.239413,0.02,0,603.498249,0,0,0,0,0,0,0,0,0,0,0,0,0.811691761
0.01164,0.00582,280.707811,-280.707773,0.02,0,604.226547,0,0,0,0,0,0,0,0,0,0,0,0,0.72829771
0.01166,0.00583,281.176856,-281.176409,0.02,0,605.011017,0,0,0,0,0,0,0,0,0,0,0,0,0.784469843
0.01168,0.00584,281.6454,-281.645365,0.04,0,605.899747,0,0,0,0,0,0,0,0,0,0,0,0,0.888730049
0.01172,0.00586,282.583884,-282.580078,0.04,0,609.249715,0,0,0,0,0,0,0,0,0,0,0,0,3.34996843
0.01176,0.00588,283.850526,-283.864598,0.04,1,611.512259,0,0,0,0,0,0,0,0,0,0,0,0,2.26254368
0.0118,0.0059,285.101153,-285.191246,0.04,1,618.774262,0,0,0,0,0,0,0,0,0,0,0,0,7.26200318
0.01184,0.00592,285.351907,-285.369754,0.04,1,621.03546,0,0,0,0,0,0,0,0,0,0,0,0,2.26119757
0.01188,0.00594,286.932745,-286.890845,0.04,1,623.139001,0,0,0,0,0,0,0,0,0,0,0,0,2.1035409
0.01192,0.00596,287.230275,-287.229591,0.08,0,625.438205,0,0,0,0,0,0,0,0,0,0,0,0,2.29920387
0.01194,0.00597,287.698221,-287.698183,0.02,0,630.812016,0,0,0,0,0,0,0,0,0,0,0,0,5.37381196
0.01196,0.00598,288.165604,-288.164991,0.02,0,631.458829,0,0,0,0,0,0,0,0,0,0,0,0,0.646812439
0.01198,0.00599,288.632635,-288.632524,0.02,0,632.096375,0,0,0,0,0,0,0,0,0,0,0,0,0.637546062
0.012,0.006,289.101007,-289.100616,0.02,0,632.755712,0,0,0,0,0,0,0,0,0,0,0,0,0.659336805
0.01202,0.00601,289.564883,-289.573945,0.02,0,633.242286,0,0,0,0,0,0,0,0,0,0,0,0,0.48657465
0.01204,0.00602,290.035361,-290.035361,0.04,0,633.960543,0,0,0,0,0,0,0,0,0,0,0,0,0.718256235
0.01208,0.00604,291.270867,-291.266412,0.04,1,637.14621,0,0,0,0,0,0,0,0,0,0,0,0,3.18566775
0.01212,0.00606,292.222346,-292.239181,0.04,1,639.601194,0,0,0,0,0,0,0,0,0,0,0,0,2.45498347
0.01216,0.00608,292.846664,-292.849953,0.04,0,642.016425,0,0,0,0,0,0,0,0,0,0,0,0,2.41523075
0.0122,0.0061,294.035707,-294.060472,0.04,1,643.704531,0,0,0,0,0,0,0,0,0,0,0,0,1.68810654
0.01224,0.00612,295.007269,-295.062678,0.04,1,645.936923,0,0,0,0,0,0,0,0,0,0,0,0,2.23239136
0.01228,0.00614,295.873867,-295.864332,0.08,1,648.707357,0,0,0,0,0,0,0,0,0,0,0,0,2.77043486
0.01236,0.00618,297.515141,-297.510243,0.08,1,655.852143,0,0,0,0,0,0,0,0,0,0,0,0,7.14478564
0.01244,0.00622,299.322576,-299.300508,0.08,1,667.493428,0,0,0,0,0,0,0,0,0,0,0,0,11.6412847
0.01248,0.00624,300.258532,-300.263904,0.04,0,673.78477,0,0,0,0,0,0,0,0,0,0,0,0,6.29134274
0.01252,0.00626,301.445501,-301.545639,0.04,1,679.218068,0,0,0,0,0,0,0,0,0,0,0,0,5.43329787
0.01256,0.00628,302.447153,-302.448833,0.04,1,681.011149,0,0,0,0,0,0,0,0,0,0,0,0,1.79308057
0.0126,0.0063,303.415335,-303.382238,0.04,1,682.853319,0,0,0,0,0,0,0,0,0,0,0,0,1.84216976
0.01264,0.00632,304.294912,-304.309166,0.04,1,684.59961,0,0,0,0,0,0,0,0,0,0,0,0,1.74629164
0.01268,0.00634,304.924614,-304.927355,0.08,0,686.83446,0,0,0,0,0,0,0,0,0,0,0,0,2.23484993
0.01276,0.00638,306.720064,-306.73118,0.08,1,691.839396,0,0,0,0,0,0,0,0,0,0,0,0,5.00493622
0.01278,0.00639,307.207182,-307.207598,0.02,0,698.017623,0,0,0,0,0,0,0,0,0,0,0,0,6.17822671
0.0128,0.0064,307.674798,-307.674923,0.02,0,698.625467,0,0,0,0,0,0,0,0,0,0,0,0,0.607843637
0.01282,0.00641,308.143993,-308.143986,0.02,0,699.244417,0,0,0,0,0,0,0,0,0,0,0,0,0.61894989
0.01284,0.00642,308.611022,-308.611099,0.02,0,699.852284,0,0,0,0,0,0,0,0,0,0,0,0,0.607867002
0.01286,0.00643,309.076319,-309.07674,0.02,0,700.52004,0,0,0,0,0,0,0,0,0,0,0,0,0.667756557
0.01288,0.00644,309.544507,-309.544754,0.04,0,701.219844,0,0,0,0,0,0,0,0,0,0,0,0,0.699803591
0.01292,0.00646,311.252608,-311.280873,0.04,1,703.292228,0,0,0,0,0,0,0,0,0,0,0,0,2.0723846
0.01294,0.00647,310.934946,-310.942885,0.02,0,705.447581,0,0,0,0,0,0,0,0,0,0,0,0,2.15535283
0.01296,0.00648,311.397419,-311.396452,0.02,0,706.090321,0,0,0,0,0,0,0,0,0,0,0,0,0.642739534
0.01298,0.00649,311.864414,-311.86425,0.02,0,706.66866,0,0,0,0,0,0,0,0,0,0,0,0,0.5783391
0.013,0.0065,312.333489,-312.333035,0.02,0,707.264385,0,0,0,0,0,0,0,0,0,0,0,0,0.595725536
0.01302,0.00651,312.801307,-312.801255,0.02,0,707.856971,0,0,0,0,0,0,0,0,0,0,0,0,0.592585802
0.01304,0.00652,313.271376,-313.271305,0.04,0,708.464209,0,0,0,0,0,0,0,0,0,0,0,0,0.607238054
0.01308,0.00654,314.865293,-314.899205,0.04,1,710.386633,0,0,0,0,0,0,0,0,0,0,0,0,1.9224236
0.01312,0.00656,315.106263,-315.129514,0.04,1,713.815664,0,0,0,0,0,0,0,0,0,0,0,0,3.4290309
0.01316,0.00658,316.068496,-316.080523,0.04,1,720.910971,0,0,0,0,0,0,0,0,0,0,0,0,7.09530759
0.01318,0.00659,317.284412,-317.208137,0.02,1,723.421155,0,0,0,0,0,0,0,0,0,0,0,0,2.51018381
0.0132,0.0066,317.0167,-317.017943,0.02,0,724.151269,0,0,0,0,0,0,0,0,0,0,0,0,0.730113745
0.01322,0.00661,317.493773,-317.49309,0.02,0,724.791736,0,0,0,0,0,0,0,0,0,0,0,0,0.640466928
0.01324,0.00662,317.973567,-317.972632,0.02,0,725.558141,0,0,0,0,0,0,0,0,0,0,0,0,0.766405344
0.01326,0.00663,318.452012,-318.451338,0.02,0,726.233315,0,0,0,0,0,0,0,0,0,0,0,0,0.675173759
0.01328,0.00664,318.931105,-318.931005,0.04,0,727.09029,0,0,0,0,0,0,0,0,0,0,0,0,0.85697484
0.01332,0.00666,319.835458,-319.890464,0.04,1,729.041106,0,0,0,0,0,0,0,0,0,0,0,0,1.95081568
0.01336,0.00668,321.253417,-321.246458,0.04,1,731.301613,0,0,0,0,0,0,0,0,0,0,0,0,2.26050782
0.01338,0.00669,321.301722,-321.302317,0.02,0,733.735408,0,0,0,0,0,0,0,0,0,0,0,0,2.43379426
0.0134,0.0067,321.776537,-321.776268,0.02,0,734.493326,0,0,0,0,0,0,0,0,0,0,0,0,0.757918358
0.01342,0.00671,322.254458,-322.254338,0.02,0,735.245626,0,0,0,0,0,0,0,0,0,0,0,0,0.752300501
0.01344,0.00672,322.734096,-322.73385,0.02,0,736.021452,0,0,0,0,0,0,0,0,0,0,0,0,0.7758255
0.01346,0.00673,323.211526,-323.211192,0.02,0,736.951582,0,0,0,0,0,0,0,0,0,0,0,0,0.930130005
0.01348,0.00674,323.68573,-323.686027,0.04,0,737.725215,0,0,0,0,0,0,0,0,0,0,0,0,0.773633242
0.01352,0.00676,324.61877,-324.637926,0.04,1,741.02867,0,0,0,0,0,0,0,0,0,0,0,0,3.30345511
0.01356,0.00678,325.948269,-325.963267,0.04,1,742.781967,0,0,0,0,0,0,0,0,0,0,0,0,1.75329709
0.0136,0.0068,326.839973,-326.833812,0.04,1,745.294026,0,0,0,0,0,0,0,0,0,0,0,0,2.51205873
0.01364,0.00682,327.926337,-327.96932,0.04,1,747.702319,0,0,0,0,0,0,0,0,0,0,0,0,2.40829301
0.01366,0.00683,327.9674,-327.968673,0.02,0,749.672958,0,0,0,0,0,0,0,0,0,0,0,0,1.97063923
0.01368,0.00684,328.445801,-328.445885,0.02,0,750.375763,0,0,0,0,0,0,0,0,0,0,0,0,0.702804565
0.0137,0.00685,328.928931,-328.927695,0.02,0,750.976838,0,0,0,0,0,0,0,0,0,0,0,0,0.601075411
0.01372,0.00686,329.409432,-329.408634,0.02,0,751.528659,0,0,0,0,0,0,0,0,0,0,0,0,0.551820993
0.01374,0.00687,329.890385,-329.890379,0.02,0,752.102454,0,0,0,0,0,0,0,0,0,0,0,0,0.57379508
0.01376,0.00688,330.372826,-330.372821,0.04,0,752.778726,0,0,0,0,0,0,0,0,0,0,0,0,0.676271915
0.0138,0.0069,331.919214,-331.91334,0.04,1,755.260883,0,0,0,0,0,0,0,0,0,0,0,0,2.48215699
0.01384,0.00692,332.285105,-332.293734,0.04,1,757.87699,0,0,0,0,0,0,0,0,0,0,0,0,2.61610651
0.01386,0.00693,332.779934,-332.779947,0.02,0,759.955689,0,0,0,0,0,0,0,0,0,0,0,0,2.07869887
0.01388,0.00694,333.257199,-333.257443,0.02,0,760.527499,0,0,0,0,0,0,0,0,0,0,0,0,0.571810246
0.0139,0.00695,333.736926,-333.736941,0.02,0,761.120667,0,0,0,0,0,0,0,0,0,0,0,0,0.593167782
0.01392,0.00696,334.21466,-334.215005,0.02,0,761.848427,0,0,0,0,0,0,0,0,0,0,0,0,0.727760553
0.01394,0.00697,334.691847,-334.692605,0.02,0,762.428128,0,0,0,0,0,0,0,0,0,0,0,0,0.579700232
0.01396,0.00698,335.170838,-335.179621,0.04,0,762.880677,0,0,0,0,0,0,0,0,0,0,0,0,0.452549219
0.014,0.007,336.445723,-336.48716,0.04,1,768.615671,0,0,0,0,0,0,0,0,0,0,0,0,5.73499465
0.01404,0.00702,337.051394,-337.063926,0.04,1,773.494245,0,0,0,0,0,0,0,0,0,0,0,0,4.87857318
0.01406,0.00703,337.54037,-337.540527,0.02,0,775.886762,0,0,0,0,0,0,0,0,0,0,0,0,2.39251709
0.01408,0.00704,338.022583,-338.027266,0.02,0,776.440307,0,0,0,0,0,0,0,0,0,0,0,0,0.553545713
0.0141,0.00705,338.502119,-338.50204,0.02,0,777.111157,0,0,0,0,0,0,0,0,0,0,0,0,0.670849323
0.01412,0.00706,338.978074,-338.97835,0.02,0,777.760968,0,0,0,0,0,0,0,0,0,0,0,0,0.649811506
0.01414,0.00707,339.456074,-339.464058,0.02,0,778.420163,0,0,0,0,0,0,0,0,0,0,0,0,0.659194946
0.01416,0.00708,339.932849,-339.933479,0.04,0,779.307641,0,0,0,0,0,0,0,0,0,0,0,0,0.887477636
0.0142,0.0071,341.249791,-341.299482,0.04,1,783.687166,0,0,0,0,0,0,0,0,0,0,0,0,4.37952495
0.01424,0.00712,342.265777,-342.266628,0.04,1,786.216386,0,0,0,0,0,0,0,0,0,0,0,0,2.52922058
0.01428,0.00714,342.757461,-342.7707,0.04,1,788.588252,0,0,0,0,0,0,0,0,0,0,0,0,2.37186551
0.01432,0.00716,344.174161,-344.293874,0.04,1,790.718605,0,0,0,0,0,0,0,0,0,0,0,0,2.13035345
0.01434,0.00717,344.199587,-344.200388,0.02,0,792.464589,0,0,0,0,0,0,0,0,0,0,0,0,1.74598336
0.01436,0.00718,344.678066,-344.678134,0.02,0,793.097462,0,0,0,0,0,0,0,0,0,0,0,0,0.632873774
0.01437,0.007185,344.912348,-344.93345,0.01,0,794.314431,0,0,0,0,0,0,0,0,0,0,0,0,1.21696901
0.01438,0.00719,345.159276,-345.157928,0.01,0,794.696502,0,0,0,0,0,0,0,0,0,0,0,0,0.38207078
0.01439,0.007195,345.388618,-345.399538,0.01,0,795.116684,0,0,0,0,0,0,0,0,0,0,0,0,0.42018199
0.0144,0.0072,345.638989,-345.637974,0.01,0,795.532802,0,0,0,0,0,0,0,0,0,0,0,0,0.416117907
0.01441,0.007205,345.874603,-345.879736,0.01,0,795.886861,0,0,0,0,0,0,0,0,0,0,0,0,0.354058504
0.01442,0.00721,346.12027,-346.119194,0.02,0,796.237533,0,0,0,0,0,0,0,0,0,0,0,0,0.350672245
0.01444,0.00722,346.60196,-346.601632,0.02,0,796.896883,0,0,0,0,0,0,0,0,0,0,0,0,0.659350634
0.01446,0.00723,347.078708,-347.082919,0.02,0,797.377524,0,0,0,0,0,0,0,0,0,0,0,0,0.48064065
0.01448,0.00724,347.559047,-347.559733,0.02,0,798.109377,0,0,0,0,0,0,0,0,0,0,0,0,0.73185277
0.0145,0.00725,348.039503,-348.039918,0.02,0,798.832827,0,0,0,0,0,0,0,0,0,0,0,0,0.723450184
0.01452,0.00726,348.518608,-348.523456,0.02,0,799.306088,0,0,0,0,0,0,0,0,0,0,0,0,0.473261118
0.01454,0.00727,348.99906,-349.002326,0.04,0,799.966573,0,0,0,0,0,0,0,0,0,0,0,0,0.660484552
0.01458,0.00729,349.944579,-349.96739,0.04,1,805.46696,0,0,0,0,0,0,0,0,0,0,0,0,5.50038719
0.01462,0.00731,350.87253,-350.885891,0.04,1,809.08728,0,0,0,0,0,0,0,0,0,0,0,0,3.62031984
0.01466,0.00733,352.19795,-352.243307,0.04,1,811.415293,0,0,0,0,0,0,0,0,0,0,0,0,2.32801318
0.01468,0.00734,352.358975,-352.359219,0.02,0,817.444399,0,0,0,0,0,0,0,0,0,0,0,0,6.0291059
0.0147,0.00735,352.844142,-352.843944,0.02,0,818.042468,0,0,0,0,0,0,0,0,0,0,0,0,0.598068714
0.01472,0.00736,353.329059,-353.328364,0.02,0,818.624315,0,0,0,0,0,0,0,0,0,0,0,0,0.581846952
0.01474,0.00737,353.81247,-353.811839,0.02,0,819.203572,0,0,0,0,0,0,0,0,0,0,0,0,0.579257011
0.01476,0.00738,354.298151,-354.297759,0.02,0,819.773674,0,0,0,0,0,0,0,0,0,0,0,0,0.570102692
0.01478,0.00739,354.782079,-354.781751,0.04,0,820.377149,0,0,0,0,0,0,0,0,0,0,0,0,0.603475094
0.01482,0.00741,355.741915,-355.766358,0.04,1,822.807239,0,0,0,0,0,0,0,0,0,0,0,0,2.43008995
0.01486,0.00743,356.687123,-356.709013,0.04,1,824.58381,0,0,0,0,0,0,0,0,0,0,0,0,1.7765708
0.01488,0.00744,357.210907,-357.211184,0.02,0,828.12463,0,0,0,0,0,0,0,0,0,0,0,0,3.54082036
0.0149,0.00745,357.703456,-357.703094,0.02,0,828.774636,0,0,0,0,0,0,0,0,0,0,0,0,0.650005579
0.01492,0.00746,358.194859,-358.194776,0.02,0,829.404063,0,0,0,0,0,0,0,0,0,0,0,0,0.629427195
0.01494,0.00747,358.686241,-358.686352,0.02,0,829.997612,0,0,0,0,0,0,0,0,0,0,0,0,0.593548298
0.01496,0.00748,359.177362,-359.177234,0.02,0,830.621871,0,0,0,0,0,0,0,0,0,0,0,0,0.624259949
0.01498,0.00749,359.667749,-359.668311,0.04,0,831.285591,0,0,0,0,0,0,0,0,0,0,0,0,0.663719416
0.01502,0.00751,361.07754,-361.121246,0.04,1,834.369085,0,0,0,0,0,0,0,0,0,0,0,0,3.08349442
0.01506,0.00753,362.096174,-362.085535,0.04,1,837.892061,0,0,0,0,0,0,0,0,0,0,0,0,3.52297544
0.0151,0.00755,363.09752,-363.14758,0.04,1,842.220196,0,0,0,0,0,0,0,0,0,0,0,0,4.32813478
0.01514,0.00757,364.366517,-364.474113,0.04,1,844.736706,0,0,0,0,0,0,0,0,0,0,0,0,2.51651073
0.01518,0.00759,364.49529,-364.509402,0.04,1,846.824857,0,0,0,0,0,0,0,0,0,0,0,0,2.08815122
0.0152,0.0076,365.019657,-365.019818,0.02,0,848.254704,0,0,0,0,0,0,0,0,0,0,0,0,1.42984653
0.01522,0.00761,365.512343,-365.511977,0.02,0,848.924676,0,0,0,0,0,0,0,0,0,0,0,0,0.66997242
0.01524,0.00762,365.998911,-365.998774,0.02,0,849.592544,0,0,0,0,0,0,0,0,0,0,0,0,0.667867184
0.01526,0.00763,366.487039,-366.487009,0.02,0,850.173949,0,0,0,0,0,0,0,0,0,0,0,0,0.581405401
0.01528,0.00764,366.974574,-366.974809,0.02,0,850.817222,0,0,0,0,0,0,0,0,0,0,0,0,0.643273354
0.0153,0.00765,367.461308,-367.461629,0.04,0,851.443232,0,0,0,0,0,0,0,0,0,0,0,0,0.626009464
0.01534,0.00767,368.401359,-368.407768,0.04,1,853.92795,0,0,0,0,0,0,0,0,0,0,0,0,2.48471856
0.01538,0.00769,369.955737,-370.034639,0.04,1,856.888355,0,0,0,0,0,0,0,0,0,0,0,0,2.96040511
0.01542,0.00771,370.922039,-370.941976,0.04,1,860.048595,0,0,0,0,0,0,0,0,0,0,0,0,3.16023993
0.01544,0.00772,370.849633,-370.849892,0.02,0,863.310992,0,0,0,0,0,0,0,0,0,0,0,0,3.26239657
0.01546,0.00773,371.340338,-371.341726,0.02,0,863.910135,0,0,0,0,0,0,0,0,0,0,0,0,0.599143267
0.01548,0.00774,371.830778,-371.830832,0.02,0,864.494648,0,0,0,0,0,0,0,0,0,0,0,0,0.584513187
0.0155,0.00775,372.3233,-372.323157,0.02,0,865.086349,0,0,0,0,0,0,0,0,0,0,0,0,0.591700554
0.01552,0.00776,372.814742,-372.81851,0.02,0,865.541655,0,0,0,0,0,0,0,0,0,0,0,0,0.455305815
0.01554,0.00777,373.305227,-373.305865,0.04,0,866.153045,0,0,0,0,0,0,0,0,0,0,0,0,0.611390591
0.01558,0.00779,374.863023,-374.869539,0.04,1,869.221727,0,0,0,0,0,0,0,0,0,0,0,0,3.06868124
0.01562,0.00781,375.214867,-375.23056,0.04,1,872.192156,0,0,0,0,0,0,0,0,0,0,0,0,2.97042918
0.01566,0.00783,376.872108,-376.948109,0.04,1,875.913081,0,0,0,0,0,0,0,0,0,0,0,0,3.72092533
0.0157,0.00785,377.180974,-377.192703,0.04,1,877.69014,0,0,0,0,0,0,0,0,0,0,0,0,1.77705836
0.01574,0.00787,378.847435,-378.946936,0.04,1,880.021419,0,0,0,0,0,0,0,0,0,0,0,0,2.33127952
0.01578,0.00789,379.132426,-379.142697,0.08,1,884.304034,0,0,0,0,0,0,0,0,0,0,0,0,4.28261495
0.0158,0.0079,380.210371,-380.179455,0.02,1,888.515914,0,0,0,0,0,0,0,0,0,0,0,0,4.21188021
0.01582,0.00791,380.116473,-380.118536,0.02,0,889.335382,0,0,0,0,0,0,0,0,0,0,0,0,0.819467783
0.01584,0.00792,380.613554,-380.613227,0.02,0,890.624128,0,0,0,0,0,0,0,0,0,0,0,0,1.28874636
0.01586,0.00793,381.108188,-381.107602,0.02,0,891.33303,0,0,0,0,0,0,0,0,0,0,0,0,0.708901882
0.01588,0.00794,381.605007,-381.60322,0.02,0,892.052062,0,0,0,0,0,0,0,0,0,0,0,0,0.719032049
0.0159,0.00795,382.097606,-382.097686,0.04,0,892.710425,0,0,0,0,0,0,0,0,0,0,0,0,0.658362627
0.01594,0.00797,383.02621,-383.048672,0.04,1,897.049663,0,0,0,0,0,0,0,0,0,0,0,0,4.33923769
0.01598,0.00799,384.773135,-384.828428,0.04,1,900.047647,0,0,0,0,0,0,0,0,0,0,0,0,2.99798393
0.01602,0.00801,384.99005,-385.004362,0.04,1,902.665565,0,0,0,0,0,0,0,0,0,0,0,0,2.61791897
0.01606,0.00803,385.967524,-385.979039,0.04,1,907.440874,0,0,0,0,0,0,0,0,0,0,0,0,4.77530837
0.0161,0.00805,387.515105,-387.632821,0.04,1,912.582554,0,0,0,0,0,0,0,0,0,0,0,0,5.14167976
0.01612,0.00806,387.469203,-387.470633,0.02,0,918.343266,0,0,0,0,0,0,0,0,0,0,0,0,5.76071239
0.01614,0.00807,387.964727,-387.965504,0.02,0,920.098842,0,0,0,0,0,0,0,0,0,0,0,0,1.75557637
0.01616,0.00808,388.458078,-388.457445,0.02,0,924.227327,0,0,0,0,0,0,0,0,0,0,0,0,4.12848449
0.01618,0.00809,388.954613,-388.95405,0.02,0,925.075465,0,0,0,0,0,0,0,0,0,0,0,0,0.848138571
0.0162,0.0081,389.946904,-389.958053,0.02,1,927.462533,0,0,0,0,0,0,0,0,0,0,0,0,2.38706732
0.01622,0.00811,389.932342,-389.932813,0.04,0,928.944765,0,0,0,0,0,0,0,0,0,0,0,0,1.48223257
0.01626,0.00813,390.865041,-390.888725,0.04,1,931.603587,0,0,0,0,0,0,0,0,0,0,0,0,2.65882134
0.0163,0.00815,391.868009,-391.870405,0.04,1,937.550632,0,0,0,0,0,0,0,0,0,0,0,0,5.94704533
0.01634,0.00817,392.847571,-392.85188,0.04,1,953.105122,0,0,0,0,0,0,0,0,0,0,0,0,15.5544901
0.01636,0.00818,393.364904,-393.36477,0.02,0,958.774831,0,0,0,0,0,0,0,0,0,0,0,0,5.66970897
0.01638,0.00819,393.866352,-393.865426,0.02,0,961.533382,0,0,0,0,0,0,0,0,0,0,0,0,2.75855136
0.0164,0.0082,394.363722,-394.362675,0.02,0,964.258616,0,0,0,0,0,0,0,0,0,0,0,0,2.72523403
0.01642,0.00821,394.85678,-394.856339,0.02,0,966.317587,0,0,0,0,0,0,0,0,0,0,0,0,2.05897045
0.01644,0.00822,395.347977,-395.349239,0.02,0,968.604596,0,0,0,0,0,0,0,0,0,0,0,0,2.28700948
0.01646,0.00823,395.841502,-395.841899,0.04,0,970.545033,0,0,0,0,0,0,0,0,0,0,0,0,1.94043612
0.01648,0.00824,396.332681,-396.333403,0.02,0,972.783469,0,0,0,0,0,0,0,0,0,0,0,0,2.23843694
0.0165,0.00825,396.823753,-396.825121,0.02,0,973.668706,0,0,0,0,0,0,0,0,0,0,0,0,0.885236263
0.01652,0.00826,397.315728,-397.315997,0.02,0,975.25774,0,0,0,0,0,0,0,0,0,0,0,0,1.58903408
0.01654,0.00827,397.807132,-397.807234,0.02,0,979.937297,0,0,0,0,0,0,0,0,0,0,0,0,4.67955732
0.01656,0.00828,398.296902,-398.297842,0.02,0,980.600159,0,0,0,0,0,0,0,0,0,0,0,0,0.662861586
0.01658,0.00829,398.785873,-398.787658,0.04,0,981.338972,0,0,0,0,0,0,0,0,0,0,0,0,0.738813162
0.01662,0.00831,399.725884,-399.735562,0.04,1,984.446369,0,0,0,0,0,0,0,0,0,0,0,0,3.10739756
0.01666,0.00833,400.690177,-400.703828,0.04,1,990.782556,0,0,0,0,0,0,0,0,0,0,0,0,6.33618689
0.01668,0.00834,401.20554,-401.20676,0.02,0,993.328598,0,0,0,0,0,0,0,0,0,0,0,0,2.54604173
0.0167,0.00835,401.699465,-401.699816,0.02,0,994.452306,0,0,0,0,0,0,0,0,0,0,0,0,1.12370777
0.01672,0.00836,402.193467,-402.194009,0.02,0,995.726408,0,0,0,0,0,0,0,0,0,0,0,0,1.27410173
0.01674,0.00837,402.684792,-402.686238,0.02,0,996.526028,0,0,0,0,0,0,0,0,0,0,0,0,0.799620152
0.01676,0.00838,403.175075,-403.176329,0.02,0,997.509637,0,0,0,0,0,0,0,0,0,0,0,0,0.983609438
0.01678,0.00839,403.666104,-403.666264,0.04,0,998.801736,0,0,0,0,0,0,0,0,0,0,0,0,1.29209924
0.01682,0.00841,404.642672,-404.641738,0.04,0,1000.51714,0,0,0,0,0,0,0,0,0,0,0,0,1.71540856
0.01686,0.00843,405.618556,-405.619367,0.04,0,1002.94409,0,0,0,0,0,0,0,0,0,0,0,0,2.42694783
0.01688,0.00844,406.10696,-406.109098,0.02,0,1004.67126,0,0,0,0,0,0,0,0,0,0,0,0,1.72717071
0.0169,0.00845,406.596954,-406.59773,0.02,0,1005.4712,0,0,0,0,0,0,0,0,0,0,0,0,0.799933434
0.01692,0.00846,407.084528,-407.084686,0.02,0,1006.07954,0,0,0,0,0,0,0,0,0,0,0,0,0.608346939
0.01694,0.00847,407.572874,-407.572333,0.02,0,1007.59279,0,0,0,0,0,0,0,0,0,0,0,0,1.51324153
0.01696,0.00848,408.060449,-408.061018,0.02,0,1008.54306,0,0,0,0,0,0,0,0,0,0,0,0,0.950271606
0.01698,0.00849,408.546167,-408.547297,0.04,0,1009.42494,0,0,0,0,0,0,0,0,0,0,0,0,0.881881237
0.01702,0.00851,409.518508,-409.522246,0.04,0,1012.05826,0,0,0,0,0,0,0,0,0,0,0,0,2.63332057
0.01706,0.00853,410.4636,-410.477748,0.04,1,1015.03778,0,0,0,0,0,0,0,0,0,0,0,0,2.9795239
0.0171,0.00855,411.397029,-411.436849,0.04,1,1022.97828,0,0,0,0,0,0,0,0,0,0,0,0,7.94049454
0.01714,0.00857,412.40505,-412.404364,0.04,0,1026.80334,0,0,0,0,0,0,0,0,0,0,0,0,3.82505965
0.01716,0.00858,412.899649,-412.897306,0.02,0,1029.88562,0,0,0,0,0,0,0,0,0,0,0,0,3.0822835
0.01718,0.00859,413.38442,-413.387778,0.02,0,1031.26172,0,0,0,0,0,0,0,0,0,0,0,0,1.37610197
0.01719,0.008595,413.62749,-413.63957,0.01,0,1033.04744,0,0,0,0,0,0,0,0,0,0,0,0,1.78572011
0.0172,0.0086,413.868806,-413.885819,0.01,0,1034.32031,0,0,0,0,0,0,0,0,0,0,0,0,1.27286673
0.01721,0.008605,414.117378,-414.117519,0.01,0,1035.48232,0,0,0,0,0,0,0,0,0,0,0,0,1.1620059
0.01722,0.00861,414.359705,-414.370781,0.01,0,1036.42996,0,0,0,0,0,0,0,0,0,0,0,0,0.947640419
0.01723,0.008615,414.600655,-414.617831,0.01,0,1037.33808,0,0,0,0,0,0,0,0,0,0,0,0,0.908119917
0.01724,0.00862,414.851542,-414.850407,0.02,0,1037.73148,0,0,0,0,0,0,0,0,0,0,0,0,0.39340353
0.01726,0.00863,415.336493,-415.337839,0.02,0,1040.60704,0,0,0,0,0,0,0,0,0,0,0,0,2.87556577
0.01728,0.00864,415.81713,-415.820235,0.02,0,1043.0493,0,0,0,0,0,0,0,0,0,0,0,0,2.44225335
0.0173,0.00865,416.303808,-416.305818,0.02,0,1045.5933,0,0,0,0,0,0,0,0,0,0,0,0,2.54400444
0.01732,0.00866,416.786281,-416.786778,0.02,0,1048.58392,0,0,0,0,0,0,0,0,0,0,0,0,2.9906137
0.01734,0.00867,417.27121,-417.271663,0.02,0,1052.05928,0,0,0,0,0,0,0,0,0,0,0,0,3.47536778
0.01736,0.00868,417.756611,-417.756833,0.04,0,1052.96251,0,0,0,0,0,0,0,0,0,0,0,0,0.903229952
0.0174,0.0087,418.728698,-418.727323,0.04,0,1054.96554,0,0,0,0,0,0,0,0,0,0,0,0,2.00302339
0.01744,0.00872,419.704888,-419.705484,0.04,1,1063.3829,0,0,0,0,0,0,0,0,0,0,0,0,8.41736388
0.01748,0.00874,420.644834,-420.670725,0.04,1,1072.47532,0,0,0,0,0,0,0,0,0,0,0,0,9.09241557
0.0175,0.00875,421.140793,-421.141484,0.02,0,1077.72413,0,0,0,0,0,0,0,0,0,0,0,0,5.24881124
0.01752,0.00876,421.628854,-421.630476,0.02,0,1080.84975,0,0,0,0,0,0,0,0,0,0,0,0,3.12561727
