# ADR90 WP-A2 tau=0 band, build 37d0891acb80c9194f7e10b4fd5b486f6aee8951 (expected any), leg h1.0_e0.6944
s_m,s_over_B,q_foot_kPa,q_base_kPa,ds_mm,relaxed,wall_s,implex_err_avg,implex_refusals,guard_floor,guard_f0,guard_hold,guard_res,guard_ctlf,substeps_tot,substeps_max,substeps_max_ele,substeps_ring_tot,substeps_ring_max,wall_step_s
2e-05,1e-05,0.785411966,-0.788336654,0.02,0,0.0603373051,0,0,0,0,0,0,0,0,0,0,0,0,0.0603373051
4e-05,2e-05,1.53457116,-1.53503867,0.02,0,0.199795246,0,0,0,0,0,0,0,0,0,0,0,0,0.139457941
6e-05,3e-05,2.26495377,-2.26571482,0.02,0,0.36619401,0,0,0,0,0,0,0,0,0,0,0,0,0.166398764
8e-05,4e-05,2.97944654,-2.98053776,0.02,0,0.525298357,0,0,0,0,0,0,0,0,0,0,0,0,0.159104347
0.0001,5e-05,3.68082713,-3.68216314,0.02,0,0.731344938,0,0,0,0,0,0,0,0,0,0,0,0,0.206046581
0.00012,6e-05,4.37094499,-4.37274035,0.04,0,0.922126532,0,0,0,0,0,0,0,0,0,0,0,0,0.190781593
0.00016,8e-05,5.70624544,-5.7119643,0.04,0,1.17345428,0,0,0,0,0,0,0,0,0,0,0,0,0.251327753
0.0002,0.0001,7.01015721,-7.01759791,0.04,0,1.489604,0,0,0,0,0,0,0,0,0,0,0,0,0.316149712
0.00024,0.00012,8.2875603,-8.29952775,0.04,0,1.85334492,0,0,0,0,0,0,0,0,0,0,0,0,0.363740921
0.00028,0.00014,9.54601384,-9.55834019,0.04,0,2.17922258,0,0,0,0,0,0,0,0,0,0,0,0,0.325877666
0.00032,0.00016,10.7838109,-10.7990238,0.04,0,2.49356008,0,0,0,0,0,0,0,0,0,0,0,0,0.314337492
0.00036,0.00018,12.006293,-12.0236719,0.08,0,2.80375743,0,0,0,0,0,0,0,0,0,0,0,0,0.310197353
0.0004,0.0002,13.2166666,-13.2169868,0.04,0,3.97018075,0,0,0,0,0,0,0,0,0,0,0,0,1.16642332
0.00044,0.00022,14.4107376,-14.411172,0.04,0,4.38459039,0,0,0,0,0,0,0,0,0,0,0,0,0.414409637
0.00048,0.00024,15.5921845,-15.5926295,0.04,0,4.82463622,0,0,0,0,0,0,0,0,0,0,0,0,0.440045834
0.00052,0.00026,16.7616099,-16.7626173,0.04,0,5.48637462,0,0,0,0,0,0,0,0,0,0,0,0,0.661738396
0.00056,0.00028,17.9206786,-17.9218042,0.04,0,6.01818109,0,0,0,0,0,0,0,0,0,0,0,0,0.531806469
0.0006,0.0003,19.0699061,-19.0709257,0.08,0,6.44415903,0,0,0,0,0,0,0,0,0,0,0,0,0.425977945
0.00064,0.00032,20.2093665,-20.2101047,0.04,0,7.52152157,0,0,0,0,0,0,0,0,0,0,0,0,1.07736254
0.00068,0.00034,21.3406752,-21.341406,0.04,0,7.94663644,0,0,0,0,0,0,0,0,0,0,0,0,0.42511487
0.00072,0.00036,22.463897,-22.4656248,0.04,0,8.36940861,0,0,0,0,0,0,0,0,0,0,0,0,0.422772169
0.00076,0.00038,23.5790812,-23.5810129,0.04,0,8.83524251,0,0,0,0,0,0,0,0,0,0,0,0,0.465833902
0.00078,0.00039,24.1387222,-24.1387146,0.02,0,9.7534132,0,0,0,0,0,0,0,0,0,0,0,0,0.918170691
0.0008,0.0004,24.695215,-24.6957791,0.02,0,10.1302896,0,0,0,0,0,0,0,0,0,0,0,0,0.376876354
0.00082,0.00041,25.2497695,-25.2503677,0.02,0,10.5354946,0,0,0,0,0,0,0,0,0,0,0,0,0.405205011
0.00084,0.00042,25.8029056,-25.8033966,0.02,0,10.9144793,0,0,0,0,0,0,0,0,0,0,0,0,0.37898469
0.00086,0.00043,26.3541549,-26.3548973,0.02,0,11.2820959,0,0,0,0,0,0,0,0,0,0,0,0,0.367616653
0.00088,0.00044,26.9035365,-26.9041814,0.04,0,11.6500459,0,0,0,0,0,0,0,0,0,0,0,0,0.367949963
0.00092,0.00046,27.9904887,-27.9946039,0.04,0,12.0877922,0,0,0,0,0,0,0,0,0,0,0,0,0.437746286
0.00096,0.00048,29.0738086,-29.0768266,0.04,0,12.503186,0,0,0,0,0,0,0,0,0,0,0,0,0.415393829
0.001,0.0005,30.1517414,-30.1560461,0.04,0,13.0518076,0,0,0,0,0,0,0,0,0,0,0,0,0.548621655
0.00104,0.00052,31.2247721,-31.2292765,0.04,0,13.5030494,0,0,0,0,0,0,0,0,0,0,0,0,0.451241732
0.00108,0.00054,32.2949567,-32.2942596,0.04,0,13.9494464,0,0,0,0,0,0,0,0,0,0,0,0,0.446397066
0.00112,0.00056,33.3575678,-33.3591742,0.08,0,14.4080982,0,0,0,0,0,0,0,0,0,0,0,0,0.458651781
0.00116,0.00058,34.5052631,-34.543053,0.04,1,16.3135023,0,0,0,0,0,0,0,0,0,0,0,0,1.90540409
0.0012,0.0006,35.4724883,-35.4718487,0.04,0,16.9231732,0,0,0,0,0,0,0,0,0,0,0,0,0.609670877
0.00122,0.00061,36.0012664,-36.0007842,0.02,0,17.8797743,0,0,0,0,0,0,0,0,0,0,0,0,0.956601143
0.00124,0.00062,36.5269709,-36.5281811,0.02,0,18.3246887,0,0,0,0,0,0,0,0,0,0,0,0,0.444914341
0.00126,0.00063,37.052676,-37.0532397,0.02,0,18.7368276,0,0,0,0,0,0,0,0,0,0,0,0,0.412138939
0.00128,0.00064,37.5777517,-37.5785446,0.02,0,19.1123314,0,0,0,0,0,0,0,0,0,0,0,0,0.375503778
0.0013,0.00065,38.1016378,-38.1024354,0.02,0,19.5342119,0,0,0,0,0,0,0,0,0,0,0,0,0.421880484
0.00132,0.00066,38.6245826,-38.6251445,0.04,0,19.9404943,0,0,0,0,0,0,0,0,0,0,0,0,0.406282425
0.00136,0.00068,39.6644215,-39.6616192,0.04,0,20.4945383,0,0,0,0,0,0,0,0,0,0,0,0,0.554044008
0.00138,0.00069,40.185997,-40.1852507,0.02,0,21.4542787,0,0,0,0,0,0,0,0,0,0,0,0,0.9597404
0.00139,0.000695,40.4423045,-40.4525371,0.01,0,22.1537945,0,0,0,0,0,0,0,0,0,0,0,0,0.69951582
0.0014,0.0007,40.700498,-40.7116487,0.01,0,22.3764794,0,0,0,0,0,0,0,0,0,0,0,0,0.22268486
0.00141,0.000705,40.959422,-40.9711553,0.01,0,22.5889676,0,0,0,0,0,0,0,0,0,0,0,0,0.212488174
0.00142,0.00071,41.2192001,-41.2309779,0.01,0,22.803477,0,0,0,0,0,0,0,0,0,0,0,0,0.214509487
0.00143,0.000715,41.4778427,-41.4899895,0.01,0,23.028662,0,0,0,0,0,0,0,0,0,0,0,0,0.225184917
0.00144,0.00072,41.7372725,-41.7493448,0.02,0,23.2739921,0,0,0,0,0,0,0,0,0,0,0,0,0.245330095
0.00146,0.00073,42.2558077,-42.2570112,0.02,0,23.6817365,0,0,0,0,0,0,0,0,0,0,0,0,0.407744408
0.00148,0.00074,42.7725773,-42.7728952,0.02,0,24.085494,0,0,0,0,0,0,0,0,0,0,0,0,0.403757572
0.0015,0.00075,43.2874905,-43.2880572,0.02,0,24.4848669,0,0,0,0,0,0,0,0,0,0,0,0,0.399372816
0.00152,0.00076,43.8016101,-43.8021592,0.02,0,24.9117002,0,0,0,0,0,0,0,0,0,0,0,0,0.426833391
0.00154,0.00077,44.3150671,-44.3156309,0.02,0,25.2916865,0,0,0,0,0,0,0,0,0,0,0,0,0.379986286
0.00156,0.00078,44.8276549,-44.8282831,0.04,0,25.7967265,0,0,0,0,0,0,0,0,0,0,0,0,0.50503993
0.00158,0.00079,45.3436767,-45.3430204,0.02,0,26.7834659,0,0,0,0,0,0,0,0,0,0,0,0,0.986739397
0.0016,0.0008,45.8508637,-45.8516785,0.02,0,27.1827543,0,0,0,0,0,0,0,0,0,0,0,0,0.399288416
0.00162,0.00081,46.3611174,-46.3619089,0.02,0,27.5918212,0,0,0,0,0,0,0,0,0,0,0,0,0.409066916
0.00164,0.00082,46.8706829,-46.8712783,0.02,0,27.9739962,0,0,0,0,0,0,0,0,0,0,0,0,0.382174969
0.00166,0.00083,47.3796284,-47.3802445,0.02,0,28.3969789,0,0,0,0,0,0,0,0,0,0,0,0,0.422982693
0.00168,0.00084,47.8877787,-47.8885177,0.04,0,28.7843034,0,0,0,0,0,0,0,0,0,0,0,0,0.387324572
0.0017,0.00085,48.3928004,-48.4023373,0.02,0,29.8445296,0,0,0,0,0,0,0,0,0,0,0,0,1.0602262
0.00172,0.00086,48.902739,-48.903606,0.02,0,30.2318616,0,0,0,0,0,0,0,0,0,0,0,0,0.387331963
0.00174,0.00087,49.4089854,-49.4094763,0.02,0,30.672914,0,0,0,0,0,0,0,0,0,0,0,0,0.441052437
0.00176,0.00088,49.914405,-49.9151738,0.02,0,31.0829213,0,0,0,0,0,0,0,0,0,0,0,0,0.410007238
0.00178,0.00089,50.419527,-50.4201221,0.02,0,31.4869428,0,0,0,0,0,0,0,0,0,0,0,0,0.404021502
0.0018,0.0009,50.9239776,-50.9246353,0.04,0,31.9874232,0,0,0,0,0,0,0,0,0,0,0,0,0.500480413
0.00182,0.00091,51.4331167,-51.4321056,0.02,0,33.1247187,0,0,0,0,0,0,0,0,0,0,0,0,1.13729548
0.00184,0.00092,51.9314303,-51.9323118,0.02,0,33.6047959,0,0,0,0,0,0,0,0,0,0,0,0,0.480077267
0.00186,0.00093,52.4338271,-52.4348716,0.02,0,34.008177,0,0,0,0,0,0,0,0,0,0,0,0,0.403381109
0.00188,0.00094,52.9357446,-52.9367597,0.02,0,34.4416685,0,0,0,0,0,0,0,0,0,0,0,0,0.433491468
0.0019,0.00095,53.437147,-53.4380942,0.02,0,34.8705599,0,0,0,0,0,0,0,0,0,0,0,0,0.42889142
0.00192,0.00096,53.9380961,-53.9391658,0.04,0,35.2939224,0,0,0,0,0,0,0,0,0,0,0,0,0.423362494
0.00196,0.00098,55.058288,-55.1440858,0.04,1,36.4944055,0,0,0,0,0,0,0,0,0,0,0,0,1.20048308
0.00198,0.00099,55.4417101,-55.4400295,0.02,0,37.8175294,0,0,0,0,0,0,0,0,0,0,0,0,1.32312393
0.002,0.001,55.9350814,-55.9363424,0.02,0,38.782124,0,0,0,0,0,0,0,0,0,0,0,0,0.964594603
0.00202,0.00101,56.4328704,-56.4340077,0.02,0,39.2930028,0,0,0,0,0,0,0,0,0,0,0,0,0.510878801
0.00204,0.00102,56.9304089,-56.9315364,0.02,0,40.2318244,0,0,0,0,0,0,0,0,0,0,0,0,0.938821554
0.00206,0.00103,57.4275326,-57.4285648,0.02,0,41.0889666,0,0,0,0,0,0,0,0,0,0,0,0,0.85714221
0.00208,0.00104,57.9242158,-57.9253059,0.04,0,41.5609183,0,0,0,0,0,0,0,0,0,0,0,0,0.471951723
0.0021,0.00105,58.4181486,-58.4280895,0.02,0,42.8475468,0,0,0,0,0,0,0,0,0,0,0,0,1.28662848
0.00212,0.00106,58.9166272,-58.9175342,0.02,0,43.4464583,0,0,0,0,0,0,0,0,0,0,0,0,0.598911524
0.00214,0.00107,59.41154,-59.4125341,0.02,0,43.9812255,0,0,0,0,0,0,0,0,0,0,0,0,0.534767151
0.00216,0.00108,59.9062145,-59.9073834,0.02,0,45.5307081,0,0,0,0,0,0,0,0,0,0,0,0,1.54948258
0.00218,0.00109,60.4005478,-60.4018386,0.02,0,46.1330836,0,0,0,0,0,0,0,0,0,0,0,0,0.602375507
0.0022,0.0011,60.8944184,-60.8956675,0.04,0,46.9922271,0,0,0,0,0,0,0,0,0,0,0,0,0.859143496
0.00222,0.00111,61.3930801,-61.3934723,0.02,0,49.4051383,0,0,0,0,0,0,0,0,0,0,0,0,2.41291118
0.00224,0.00112,61.8815667,-61.8826827,0.02,0,50.0707843,0,0,0,0,0,0,0,0,0,0,0,0,0.665646076
0.00226,0.00113,62.3737263,-62.374949,0.02,0,51.5511978,0,0,0,0,0,0,0,0,0,0,0,0,1.48041344
0.00228,0.00114,62.8656246,-62.8668403,0.02,0,52.3147938,0,0,0,0,0,0,0,0,0,0,0,0,0.763596058
0.0023,0.00115,63.3573456,-63.3583111,0.02,0,52.9964461,0,0,0,0,0,0,0,0,0,0,0,0,0.681652308
0.00232,0.00116,63.8485967,-63.8497026,0.04,0,53.8780553,0,0,0,0,0,0,0,0,0,0,0,0,0.881609201
0.00234,0.00117,64.3375088,-64.348018,0.02,0,56.285635,0,0,0,0,0,0,0,0,0,0,0,0,2.40757966
0.00236,0.00118,64.8303918,-64.831299,0.02,0,57.252332,0,0,0,0,0,0,0,0,0,0,0,0,0.966696978
0.00238,0.00119,65.3200142,-65.3212425,0.02,0,58.0168016,0,0,0,0,0,0,0,0,0,0,0,0,0.764469624
0.0024,0.0012,65.8096944,-65.810612,0.02,0,58.7423649,0,0,0,0,0,0,0,0,0,0,0,0,0.725563288
0.00242,0.00121,66.2988672,-66.3001288,0.02,0,59.2567406,0,0,0,0,0,0,0,0,0,0,0,0,0.514375687
0.00244,0.00122,66.7877576,-66.7886828,0.04,0,60.0888176,0,0,0,0,0,0,0,0,0,0,0,0,0.832077026
0.00246,0.00123,67.2743354,-67.2849444,0.02,0,62.1421638,0,0,0,0,0,0,0,0,0,0,0,0,2.05334616
0.00248,0.00124,67.7650333,-67.7667243,0.02,0,62.7277019,0,0,0,0,0,0,0,0,0,0,0,0,0.585538149
0.0025,0.00125,68.2523252,-68.253759,0.02,0,63.4521947,0,0,0,0,0,0,0,0,0,0,0,0,0.724492788
0.00252,0.00126,68.7397343,-68.7409185,0.02,0,64.2139249,0,0,0,0,0,0,0,0,0,0,0,0,0.761730194
0.00254,0.00127,69.2266862,-69.2275578,0.02,0,64.8432477,0,0,0,0,0,0,0,0,0,0,0,0,0.629322767
0.00256,0.00128,69.7132724,-69.7142276,0.04,0,66.0227816,0,0,0,0,0,0,0,0,0,0,0,0,1.17953396
0.0026,0.0013,70.6919654,-70.6886205,0.04,0,66.9568257,0,0,0,0,0,0,0,0,0,0,0,0,0.934044123
0.00262,0.00131,71.1664305,-71.1779215,0.02,0,68.7594287,0,0,0,0,0,0,0,0,0,0,0,0,1.80260301
0.00264,0.00132,71.6541244,-71.6560705,0.02,0,69.6336744,0,0,0,0,0,0,0,0,0,0,0,0,0.874245644
0.00266,0.00133,72.1396517,-72.1405024,0.02,0,70.4826393,0,0,0,0,0,0,0,0,0,0,0,0,0.84896493
0.00268,0.00134,72.6240197,-72.624809,0.02,0,71.1684716,0,0,0,0,0,0,0,0,0,0,0,0,0.685832262
0.0027,0.00135,73.108375,-73.109113,0.02,0,72.0608075,0,0,0,0,0,0,0,0,0,0,0,0,0.892335892
0.00272,0.00136,73.5923925,-73.5931487,0.04,0,73.0677774,0,0,0,0,0,0,0,0,0,0,0,0,1.00696993
0.00274,0.00137,74.0740743,-74.0855398,0.02,0,74.941613,0,0,0,0,0,0,0,0,0,0,0,0,1.87383556
0.00276,0.00138,74.5606276,-74.5610072,0.02,0,75.4969835,0,0,0,0,0,0,0,0,0,0,0,0,0.555370569
0.00278,0.00139,75.0426514,-75.0432445,0.02,0,76.7186055,0,0,0,0,0,0,0,0,0,0,0,0,1.22162199
0.0028,0.0014,75.5250969,-75.5258081,0.02,0,77.2437241,0,0,0,0,0,0,0,0,0,0,0,0,0.525118589
0.00282,0.00141,76.0071751,-76.0078448,0.02,0,78.0203674,0,0,0,0,0,0,0,0,0,0,0,0,0.776643276
0.00284,0.00142,76.4895036,-76.4899634,0.04,0,79.4100645,0,0,0,0,0,0,0,0,0,0,0,0,1.38969707
0.00288,0.00144,77.4510681,-77.4517934,0.04,0,80.810915,0,0,0,0,0,0,0,0,0,0,0,0,1.40085053
0.00292,0.00146,78.4114084,-78.4120723,0.04,0,81.7722676,0,0,0,0,0,0,0,0,0,0,0,0,0.961352587
0.00294,0.00147,78.8867195,-78.9018943,0.02,0,83.3128874,0,0,0,0,0,0,0,0,0,0,0,0,1.54061985
0.00296,0.00148,79.3739694,-79.3750146,0.02,0,84.073637,0,0,0,0,0,0,0,0,0,0,0,0,0.760749578
0.00298,0.00149,79.8530161,-79.8536686,0.02,0,84.5442867,0,0,0,0,0,0,0,0,0,0,0,0,0.470649719
0.003,0.0015,80.3324334,-80.3331011,0.02,0,85.1025298,0,0,0,0,0,0,0,0,0,0,0,0,0.558243036
0.00302,0.00151,80.8113755,-80.8123747,0.02,0,85.6042492,0,0,0,0,0,0,0,0,0,0,0,0,0.501719475
0.00304,0.00152,81.2911747,-81.2928006,0.04,0,86.1960862,0,0,0,0,0,0,0,0,0,0,0,0,0.591836929
0.00308,0.00154,82.2476799,-82.2484006,0.04,0,87.050719,0,0,0,0,0,0,0,0,0,0,0,0,0.854632854
0.0031,0.00155,82.7290529,-82.7309092,0.02,0,88.7316124,0,0,0,0,0,0,0,0,0,0,0,0,1.68089342
0.00312,0.00156,83.2047778,-83.204094,0.02,0,89.24032,0,0,0,0,0,0,0,0,0,0,0,0,0.508707523
0.00314,0.00157,83.6826048,-83.6821395,0.02,0,89.8990743,0,0,0,0,0,0,0,0,0,0,0,0,0.658754349
0.00316,0.00158,84.1604451,-84.1598424,0.02,0,90.4086628,0,0,0,0,0,0,0,0,0,0,0,0,0.50958848
0.00318,0.00159,84.6379458,-84.6374189,0.02,0,91.1752532,0,0,0,0,0,0,0,0,0,0,0,0,0.766590357
0.0032,0.0016,85.1152522,-85.1146254,0.04,0,91.694912,0,0,0,0,0,0,0,0,0,0,0,0,0.519658804
0.00324,0.00162,86.3396877,-86.3905822,0.04,1,93.2881682,0,0,0,0,0,0,0,0,0,0,0,0,1.59325624
0.00326,0.00163,86.5626804,-86.562631,0.02,0,95.2909999,0,0,0,0,0,0,0,0,0,0,0,0,2.0028317
0.00328,0.00164,87.0282964,-87.0277556,0.02,0,95.9922414,0,0,0,0,0,0,0,0,0,0,0,0,0.701241493
0.0033,0.00165,87.5023689,-87.5016962,0.02,0,96.5559332,0,0,0,0,0,0,0,0,0,0,0,0,0.563691854
0.00332,0.00166,87.9772608,-87.9766921,0.02,0,97.2514486,0,0,0,0,0,0,0,0,0,0,0,0,0.695515394
0.00334,0.00167,88.4526755,-88.4521894,0.02,0,97.7369971,0,0,0,0,0,0,0,0,0,0,0,0,0.485548496
0.00336,0.00168,88.9279379,-88.9275444,0.04,0,98.3906724,0,0,0,0,0,0,0,0,0,0,0,0,0.653675318
0.0034,0.0017,89.8756616,-89.875689,0.04,0,99.3765597,0,0,0,0,0,0,0,0,0,0,0,0,0.985887289
0.00344,0.00172,91.0988789,-91.1083898,0.04,1,102.55596,0,0,0,0,0,0,0,0,0,0,0,0,3.17940068
0.00348,0.00174,91.7784865,-91.7799111,0.04,0,103.374865,0,0,0,0,0,0,0,0,0,0,0,0,0.818904638
0.00352,0.00176,92.7178317,-92.7223806,0.04,0,105.038131,0,0,0,0,0,0,0,0,0,0,0,0,1.66326618
0.00356,0.00178,93.9301532,-93.9702005,0.04,1,106.119215,0,0,0,0,0,0,0,0,0,0,0,0,1.08108401
0.00358,0.00179,94.1475858,-94.1496326,0.02,0,107.447766,0,0,0,0,0,0,0,0,0,0,0,0,1.32855082
0.0036,0.0018,94.6163586,-94.6160056,0.02,0,108.140854,0,0,0,0,0,0,0,0,0,0,0,0,0.693087578
0.00362,0.00181,95.0874883,-95.0871806,0.02,0,108.646392,0,0,0,0,0,0,0,0,0,0,0,0,0.505537987
0.00364,0.00182,95.5592787,-95.5587863,0.02,0,109.273524,0,0,0,0,0,0,0,0,0,0,0,0,0.627132416
0.00366,0.00183,96.0312052,-96.0307589,0.02,0,109.789637,0,0,0,0,0,0,0,0,0,0,0,0,0.516113043
0.00368,0.00184,96.5032484,-96.5028127,0.04,0,110.443069,0,0,0,0,0,0,0,0,0,0,0,0,0.653431416
0.00372,0.00186,97.769042,-97.8078692,0.04,1,111.678345,0,0,0,0,0,0,0,0,0,0,0,0,1.23527646
0.00376,0.00188,98.3953956,-98.3991287,0.04,0,113.259722,0,0,0,0,0,0,0,0,0,0,0,0,1.58137679
0.0038,0.0019,99.3373409,-99.3379281,0.04,0,114.497649,0,0,0,0,0,0,0,0,0,0,0,0,1.2379272
0.00384,0.00192,100.574324,-100.603917,0.04,1,116.632553,0,0,0,0,0,0,0,0,0,0,0,0,2.13490438
0.00388,0.00194,101.501892,-101.633306,0.04,1,118.322077,0,0,0,0,0,0,0,0,0,0,0,0,1.6895237
0.00392,0.00196,102.167496,-102.168594,0.08,0,119.772774,0,0,0,0,0,0,0,0,0,0,0,0,1.45069695
0.00394,0.00197,102.634742,-102.634856,0.02,0,123.470659,0,0,0,0,0,0,0,0,0,0,0,0,3.69788504
0.00396,0.00198,103.101384,-103.101325,0.02,0,124.173955,0,0,0,0,0,0,0,0,0,0,0,0,0.703296423
0.00398,0.00199,103.570884,-103.570851,0.02,0,125.075664,0,0,0,0,0,0,0,0,0,0,0,0,0.901708841
0.004,0.002,104.040503,-104.040503,0.02,0,125.898131,0,0,0,0,0,0,0,0,0,0,0,0,0.822467089
0.00402,0.00201,104.51024,-104.510237,0.02,0,126.479479,0,0,0,0,0,0,0,0,0,0,0,0,0.581347466
0.00404,0.00202,104.979981,-104.979976,0.04,0,127.844167,0,0,0,0,0,0,0,0,0,0,0,0,1.36468768
0.00406,0.00203,105.449736,-105.449683,0.02,0,129.715989,0,0,0,0,0,0,0,0,0,0,0,0,1.8718226
0.00408,0.00204,105.919332,-105.919327,0.02,0,130.678177,0,0,0,0,0,0,0,0,0,0,0,0,0.962188244
0.0041,0.00205,106.38884,-106.388834,0.02,0,131.452528,0,0,0,0,0,0,0,0,0,0,0,0,0.774350882
0.00412,0.00206,106.858211,-106.858211,0.02,0,132.390169,0,0,0,0,0,0,0,0,0,0,0,0,0.937641144
0.00414,0.00207,107.327455,-107.327459,0.02,0,132.968538,0,0,0,0,0,0,0,0,0,0,0,0,0.578368902
0.00416,0.00208,107.796559,-107.796568,0.04,0,133.870312,0,0,0,0,0,0,0,0,0,0,0,0,0.901773453
0.00418,0.00209,108.265363,-108.265385,0.02,0,135.785455,0,0,0,0,0,0,0,0,0,0,0,0,1.91514301
0.0042,0.0021,108.734149,-108.734178,0.02,0,136.676166,0,0,0,0,0,0,0,0,0,0,0,0,0.890711069
0.00422,0.00211,109.202789,-109.20283,0.02,0,137.308063,0,0,0,0,0,0,0,0,0,0,0,0,0.631897449
0.00424,0.00212,109.670839,-109.671148,0.02,0,138.153274,0,0,0,0,0,0,0,0,0,0,0,0,0.845210552
0.00426,0.00213,110.139615,-110.13967,0.02,0,138.815376,0,0,0,0,0,0,0,0,0,0,0,0,0.662102461
0.00428,0.00214,110.607819,-110.60772,0.04,0,140.151937,0,0,0,0,0,0,0,0,0,0,0,0,1.33656096
0.00432,0.00216,111.828873,-111.908769,0.04,1,141.994541,0,0,0,0,0,0,0,0,0,0,0,0,1.84260345
0.00434,0.00217,112.022786,-112.023131,0.02,0,144.157331,0,0,0,0,0,0,0,0,0,0,0,0,2.16279054
0.00436,0.00218,112.486115,-112.486703,0.02,0,145.009106,0,0,0,0,0,0,0,0,0,0,0,0,0.851775169
0.00438,0.00219,112.951887,-112.952348,0.02,0,145.665071,0,0,0,0,0,0,0,0,0,0,0,0,0.655964613
0.0044,0.0022,113.41785,-113.418259,0.02,0,146.76773,0,0,0,0,0,0,0,0,0,0,0,0,1.10265851
0.00442,0.00221,113.884606,-113.885011,0.02,0,147.624576,0,0,0,0,0,0,0,0,0,0,0,0,0.856846809
0.00444,0.00222,114.352206,-114.3526,0.04,0,148.360631,0,0,0,0,0,0,0,0,0,0,0,0,0.736054659
0.00448,0.00224,115.285363,-115.285587,0.04,0,149.848393,0,0,0,0,0,0,0,0,0,0,0,0,1.48776197
0.0045,0.00225,115.751719,-115.752046,0.02,0,152.042296,0,0,0,0,0,0,0,0,0,0,0,0,2.19390297
0.00452,0.00226,116.219088,-116.219469,0.02,0,152.886903,0,0,0,0,0,0,0,0,0,0,0,0,0.844606638
0.00454,0.00227,116.686,-116.686414,0.02,0,153.66242,0,0,0,0,0,0,0,0,0,0,0,0,0.775517225
0.00456,0.00228,117.152749,-117.153134,0.02,0,154.835383,0,0,0,0,0,0,0,0,0,0,0,0,1.1729629
0.00458,0.00229,117.619296,-117.61968,0.02,0,155.794134,0,0,0,0,0,0,0,0,0,0,0,0,0.958751202
0.0046,0.0023,118.085785,-118.086175,0.04,0,156.38095,0,0,0,0,0,0,0,0,0,0,0,0,0.586816072
0.00464,0.00232,119.385791,-119.437697,0.04,1,158.10153,0,0,0,0,0,0,0,0,0,0,0,0,1.7205801
0.00466,0.00233,119.496463,-119.498311,0.02,0,160.305209,0,0,0,0,0,0,0,0,0,0,0,0,2.20367908
0.00468,0.00234,119.958058,-119.959003,0.02,0,161.190976,0,0,0,0,0,0,0,0,0,0,0,0,0.885766983
0.0047,0.00235,120.422478,-120.423197,0.02,0,161.822271,0,0,0,0,0,0,0,0,0,0,0,0,0.631295204
0.00472,0.00236,120.88759,-120.88821,0.02,0,162.348633,0,0,0,0,0,0,0,0,0,0,0,0,0.526361704
0.00474,0.00237,121.352983,-121.353553,0.02,0,163.196998,0,0,0,0,0,0,0,0,0,0,0,0,0.848364592
0.00476,0.00238,121.818532,-121.819098,0.04,0,163.847006,0,0,0,0,0,0,0,0,0,0,0,0,0.650007963
0.0048,0.0024,122.801521,-122.940511,0.04,1,167.595739,0,0,0,0,0,0,0,0,0,0,0,0,3.74873376
0.00484,0.00242,124.063245,-124.142205,0.04,1,170.069493,0,0,0,0,0,0,0,0,0,0,0,0,2.47375393
0.00486,0.00243,124.159964,-124.160709,0.02,0,171.979125,0,0,0,0,0,0,0,0,0,0,0,0,1.90963197
0.00488,0.00244,124.6206,-124.623409,0.02,0,172.609759,0,0,0,0,0,0,0,0,0,0,0,0,0.630634069
0.0049,0.00245,125.088958,-125.089753,0.02,0,173.146955,0,0,0,0,0,0,0,0,0,0,0,0,0.537195683
0.00492,0.00246,125.556821,-125.557682,0.02,0,173.773811,0,0,0,0,0,0,0,0,0,0,0,0,0.626856089
0.00494,0.00247,126.025039,-126.025768,0.02,0,175.284118,0,0,0,0,0,0,0,0,0,0,0,0,1.5103066
0.00496,0.00248,126.493297,-126.494107,0.04,0,175.93505,0,0,0,0,0,0,0,0,0,0,0,0,0.650931835
0.005,0.0025,127.848367,-127.839424,0.04,1,177.28758,0,0,0,0,0,0,0,0,0,0,0,0,1.35253096
0.00502,0.00251,127.90515,-127.905915,0.02,0,178.633224,0,0,0,0,0,0,0,0,0,0,0,0,1.34564352
0.00504,0.00252,128.368386,-128.369501,0.02,0,179.335032,0,0,0,0,0,0,0,0,0,0,0,0,0.701807976
0.00506,0.00253,128.834748,-128.835945,0.02,0,179.896521,0,0,0,0,0,0,0,0,0,0,0,0,0.561489105
0.00508,0.00254,129.302836,-129.30373,0.02,0,180.299371,0,0,0,0,0,0,0,0,0,0,0,0,0.402849674
0.0051,0.00255,129.77045,-129.771481,0.02,0,180.815656,0,0,0,0,0,0,0,0,0,0,0,0,0.516285181
0.00512,0.00256,130.238243,-130.239122,0.04,0,181.603814,0,0,0,0,0,0,0,0,0,0,0,0,0.78815794
0.00516,0.00258,131.289094,-131.372905,0.04,1,183.983989,0,0,0,0,0,0,0,0,0,0,0,0,2.38017488
0.00518,0.00259,131.650841,-131.6523,0.02,0,188.181449,0,0,0,0,0,0,0,0,0,0,0,0,4.19746017
0.0052,0.0026,132.113349,-132.114644,0.02,0,188.677822,0,0,0,0,0,0,0,0,0,0,0,0,0.496372938
0.00522,0.00261,132.578731,-132.579899,0.02,0,190.860418,0,0,0,0,0,0,0,0,0,0,0,0,2.18259573
0.00524,0.00262,133.044704,-133.045863,0.02,0,192.737924,0,0,0,0,0,0,0,0,0,0,0,0,1.87750649
0.00526,0.00263,133.510962,-133.511999,0.02,0,193.729374,0,0,0,0,0,0,0,0,0,0,0,0,0.991449594
0.00528,0.00264,133.977341,-133.978324,0.04,0,194.320453,0,0,0,0,0,0,0,0,0,0,0,0,0.591079712
0.00532,0.00266,134.941452,-135.087012,0.04,1,196.136479,0,0,0,0,0,0,0,0,0,0,0,0,1.81602573
0.00536,0.00268,135.941433,-136.065292,0.04,1,200.677695,0,0,0,0,0,0,0,0,0,0,0,0,4.54121566
0.0054,0.0027,137.113972,-137.2703,0.04,1,202.168383,0,0,0,0,0,0,0,0,0,0,0,0,1.49068785
0.00542,0.00271,137.248449,-137.248478,0.02,0,203.980357,0,0,0,0,0,0,0,0,0,0,0,0,1.81197405
0.00544,0.00272,137.723146,-137.724182,0.02,0,204.606311,0,0,0,0,0,0,0,0,0,0,0,0,0.62595439
0.00546,0.00273,138.204004,-138.205374,0.02,0,205.172112,0,0,0,0,0,0,0,0,0,0,0,0,0.565800905
0.00548,0.00274,138.686342,-138.687556,0.02,0,206.027023,0,0,0,0,0,0,0,0,0,0,0,0,0.854911089
0.0055,0.00275,139.168309,-139.169539,0.02,0,206.492561,0,0,0,0,0,0,0,0,0,0,0,0,0.465537786
0.00552,0.00276,139.649803,-139.650905,0.04,0,206.969727,0,0,0,0,0,0,0,0,0,0,0,0,0.477166414
0.00556,0.00278,140.611546,-140.615176,0.04,0,208.049815,0,0,0,0,0,0,0,0,0,0,0,0,1.08008766
0.00558,0.00279,141.093171,-141.094649,0.02,0,211.876856,0,0,0,0,0,0,0,0,0,0,0,0,3.82704139
0.0056,0.0028,141.574079,-141.575402,0.02,0,213.230771,0,0,0,0,0,0,0,0,0,0,0,0,1.35391498
0.00562,0.00281,142.054793,-142.056123,0.02,0,214.570293,0,0,0,0,0,0,0,0,0,0,0,0,1.33952212
0.00564,0.00282,142.535473,-142.536784,0.02,0,215.550481,0,0,0,0,0,0,0,0,0,0,0,0,0.980187654
0.00566,0.00283,143.015985,-143.017302,0.02,0,216.988124,0,0,0,0,0,0,0,0,0,0,0,0,1.43764305
0.00568,0.00284,143.496379,-143.497693,0.04,0,217.834183,0,0,0,0,0,0,0,0,0,0,0,0,0.846059084
0.0057,0.00285,143.976434,-143.977757,0.02,0,221.248158,0,0,0,0,0,0,0,0,0,0,0,0,3.41397452
0.00572,0.00286,144.456314,-144.457649,0.02,0,222.129912,0,0,0,0,0,0,0,0,0,0,0,0,0.881754637
0.00574,0.00287,144.936024,-144.93738,0.02,0,222.712803,0,0,0,0,0,0,0,0,0,0,0,0,0.582890987
0.00576,0.00288,145.415531,-145.416914,0.02,0,223.212753,0,0,0,0,0,0,0,0,0,0,0,0,0.499949694
0.00578,0.00289,145.895154,-145.89649,0.02,0,223.728477,0,0,0,0,0,0,0,0,0,0,0,0,0.515723467
0.0058,0.0029,146.374386,-146.375789,0.04,0,224.25478,0,0,0,0,0,0,0,0,0,0,0,0,0.52630353
0.00584,0.00292,147.376028,-147.532057,0.04,1,226.205249,0,0,0,0,0,0,0,0,0,0,0,0,1.95046926
0.00586,0.00293,147.82095,-147.822972,0.02,0,228.795295,0,0,0,0,0,0,0,0,0,0,0,0,2.59004545
0.00588,0.00294,148.292707,-148.295426,0.02,0,229.302422,0,0,0,0,0,0,0,0,0,0,0,0,0.507127285
0.0059,0.00295,148.769978,-148.771733,0.02,0,230.030691,0,0,0,0,0,0,0,0,0,0,0,0,0.728268862
0.00592,0.00296,149.247448,-149.249106,0.02,0,230.770008,0,0,0,0,0,0,0,0,0,0,0,0,0.739316702
0.00594,0.00297,149.724756,-149.726455,0.02,0,231.408303,0,0,0,0,0,0,0,0,0,0,0,0,0.638294935
0.00596,0.00298,150.202667,-150.204295,0.04,0,231.914878,0,0,0,0,0,0,0,0,0,0,0,0,0.506575823
0.006,0.003,151.199766,-151.339753,0.04,1,233.542947,0,0,0,0,0,0,0,0,0,0,0,0,1.62806845
0.00602,0.00301,151.642787,-151.644244,0.02,0,235.610005,0,0,0,0,0,0,0,0,0,0,0,0,2.06705809
0.00604,0.00302,152.116077,-152.119219,0.02,0,236.078966,0,0,0,0,0,0,0,0,0,0,0,0,0.468961239
0.00606,0.00303,152.591975,-152.594386,0.02,0,236.864833,0,0,0,0,0,0,0,0,0,0,0,0,0.785866499
0.00608,0.00304,153.068755,-153.070743,0.02,0,237.47945,0,0,0,0,0,0,0,0,0,0,0,0,0.614616871
0.0061,0.00305,153.545241,-153.546988,0.02,0,238.409467,0,0,0,0,0,0,0,0,0,0,0,0,0.930017233
0.00612,0.00306,154.022024,-154.02376,0.04,0,239.444249,0,0,0,0,0,0,0,0,0,0,0,0,1.03478217
0.00614,0.00307,154.498619,-154.500389,0.02,0,240.703462,0,0,0,0,0,0,0,0,0,0,0,0,1.25921297
0.00616,0.00308,154.975054,-154.97683,0.02,0,241.202092,0,0,0,0,0,0,0,0,0,0,0,0,0.498630524
0.00618,0.00309,155.451664,-155.453428,0.02,0,241.894973,0,0,0,0,0,0,0,0,0,0,0,0,0.692880392
0.0062,0.0031,155.927998,-155.929783,0.02,0,242.333259,0,0,0,0,0,0,0,0,0,0,0,0,0.438285828
0.00622,0.00311,156.404358,-156.406142,0.02,0,243.163202,0,0,0,0,0,0,0,0,0,0,0,0,0.829942942
0.00624,0.00312,156.880675,-156.882413,0.04,0,243.645727,0,0,0,0,0,0,0,0,0,0,0,0,0.482525826
0.00626,0.00313,157.355609,-157.357965,0.02,0,245.932853,0,0,0,0,0,0,0,0,0,0,0,0,2.28712606
0.00628,0.00314,157.826922,-157.83845,0.02,0,246.623509,0,0,0,0,0,0,0,0,0,0,0,0,0.690655231
0.0063,0.00315,158.308528,-158.31037,0.02,0,247.257496,0,0,0,0,0,0,0,0,0,0,0,0,0.633987665
0.00632,0.00316,158.784381,-158.786277,0.02,0,247.752637,0,0,0,0,0,0,0,0,0,0,0,0,0.495141029
0.00634,0.00317,159.259856,-159.262732,0.02,0,249.047818,0,0,0,0,0,0,0,0,0,0,0,0,1.29518104
0.00636,0.00318,159.735703,-159.737605,0.04,0,249.758489,0,0,0,0,0,0,0,0,0,0,0,0,0.710670948
0.0064,0.0032,160.740884,-160.875537,0.04,1,252.945781,0,0,0,0,0,0,0,0,0,0,0,0,3.18729138
0.00642,0.00321,161.171904,-161.173513,0.02,0,254.537991,0,0,0,0,0,0,0,0,0,0,0,0,1.59221005
0.00644,0.00322,161.642324,-161.644169,0.02,0,255.277994,0,0,0,0,0,0,0,0,0,0,0,0,0.740002871
0.00646,0.00323,162.11562,-162.117264,0.02,0,255.716334,0,0,0,0,0,0,0,0,0,0,0,0,0.438340664
0.00648,0.00324,162.589574,-162.59125,0.02,0,256.429057,0,0,0,0,0,0,0,0,0,0,0,0,0.71272254
0.0065,0.00325,163.062756,-163.064821,0.02,0,257.081972,0,0,0,0,0,0,0,0,0,0,0,0,0.652915478
0.00652,0.00326,163.536878,-163.539289,0.04,0,257.587727,0,0,0,0,0,0,0,0,0,0,0,0,0.505754948
0.00656,0.00328,164.60733,-164.740532,0.04,1,260.200118,0,0,0,0,0,0,0,0,0,0,0,0,2.61239076
0.00658,0.00329,164.968798,-164.970514,0.02,0,262.454091,0,0,0,0,0,0,0,0,0,0,0,0,2.25397253
0.0066,0.0033,165.434035,-165.447147,0.02,0,263.320877,0,0,0,0,0,0,0,0,0,0,0,0,0.866786242
0.00662,0.00331,165.912553,-165.914711,0.02,0,264.36788,0,0,0,0,0,0,0,0,0,0,0,0,1.04700327
0.00664,0.00332,166.38522,-166.38753,0.02,0,265.959498,0,0,0,0,0,0,0,0,0,0,0,0,1.59161806
0.00666,0.00333,166.860255,-166.862212,0.02,0,267.109088,0,0,0,0,0,0,0,0,0,0,0,0,1.14958978
0.00668,0.00334,167.334327,-167.336148,0.04,0,268.007826,0,0,0,0,0,0,0,0,0,0,0,0,0.898738146
0.0067,0.00335,167.80855,-167.8103,0.02,0,270.638382,0,0,0,0,0,0,0,0,0,0,0,0,2.63055563
0.00672,0.00336,168.282636,-168.284589,0.02,0,271.17996,0,0,0,0,0,0,0,0,0,0,0,0,0.54157877
0.00674,0.00337,168.756777,-168.758468,0.02,0,271.649735,0,0,0,0,0,0,0,0,0,0,0,0,0.469774723
0.00676,0.00338,169.231875,-169.234866,0.02,0,272.51161,0,0,0,0,0,0,0,0,0,0,0,0,0.861874819
0.00678,0.00339,169.704603,-169.706423,0.02,0,272.948122,0,0,0,0,0,0,0,0,0,0,0,0,0.436511993
0.0068,0.0034,170.177962,-170.181167,0.04,0,273.896684,0,0,0,0,0,0,0,0,0,0,0,0,0.948562384
0.00684,0.00342,171.124704,-171.124443,0.04,0,276.244569,0,0,0,0,0,0,0,0,0,0,0,0,2.34788489
0.00686,0.00343,171.597007,-171.599352,0.02,0,279.368159,0,0,0,0,0,0,0,0,0,0,0,0,3.12358975
0.00688,0.00344,172.071281,-172.072866,0.02,0,280.076304,0,0,0,0,0,0,0,0,0,0,0,0,0.708144903
0.0069,0.00345,172.545223,-172.547987,0.02,0,281.297688,0,0,0,0,0,0,0,0,0,0,0,0,1.22138381
0.00692,0.00346,173.018667,-173.020401,0.02,0,281.947441,0,0,0,0,0,0,0,0,0,0,0,0,0.649753571
0.00694,0.00347,173.491305,-173.493898,0.02,0,282.444661,0,0,0,0,0,0,0,0,0,0,0,0,0.497219801
0.00696,0.00348,173.965193,-173.967522,0.04,0,283.504965,0,0,0,0,0,0,0,0,0,0,0,0,1.06030416
0.00698,0.00349,174.438517,-174.440261,0.02,0,286.158596,0,0,0,0,0,0,0,0,0,0,0,0,2.65363026
0.007,0.0035,174.911996,-174.913734,0.02,0,286.855803,0,0,0,0,0,0,0,0,0,0,0,0,0.697207689
0.00702,0.00351,175.385455,-175.388705,0.02,0,287.417512,0,0,0,0,0,0,0,0,0,0,0,0,0.561708689
0.00704,0.00352,175.857536,-175.859384,0.02,0,288.02139,0,0,0,0,0,0,0,0,0,0,0,0,0.603878021
0.00706,0.00353,176.330799,-176.333032,0.02,0,288.545021,0,0,0,0,0,0,0,0,0,0,0,0,0.523630857
0.00708,0.00354,176.802558,-176.80488,0.04,0,289.362386,0,0,0,0,0,0,0,0,0,0,0,0,0.817364693
0.00712,0.00356,177.749626,-177.74441,0.04,0,290.980896,0,0,0,0,0,0,0,0,0,0,0,0,1.61851025
0.00716,0.00358,178.715068,-178.842676,0.04,1,292.491923,0,0,0,0,0,0,0,0,0,0,0,0,1.51102686
0.0072,0.0036,179.717652,-179.888364,0.04,1,294.355283,0,0,0,0,0,0,0,0,0,0,0,0,1.86336017
0.00724,0.00362,180.594193,-180.594933,0.04,0,295.859137,0,0,0,0,0,0,0,0,0,0,0,0,1.50385427
0.00728,0.00364,181.53166,-181.533845,0.04,0,297.319617,0,0,0,0,0,0,0,0,0,0,0,0,1.46047997
0.00732,0.00366,182.501217,-182.657716,0.08,1,300.309657,0,0,0,0,0,0,0,0,0,0,0,0,2.99004006
0.00734,0.00367,182.95737,-182.96296,0.02,0,303.405017,0,0,0,0,0,0,0,0,0,0,0,0,3.09535956
0.00736,0.00368,183.421208,-183.424585,0.02,0,303.899333,0,0,0,0,0,0,0,0,0,0,0,0,0.494316101
0.00738,0.00369,183.89158,-183.894128,0.02,0,305.333507,0,0,0,0,0,0,0,0,0,0,0,0,1.43417406
0.0074,0.0037,184.360899,-184.362852,0.02,0,306.036263,0,0,0,0,0,0,0,0,0,0,0,0,0.702756643
0.00742,0.00371,184.830877,-184.83313,0.02,0,306.555298,0,0,0,0,0,0,0,0,0,0,0,0,0.519034386
0.00744,0.00372,185.302831,-185.304731,0.04,0,307.501535,0,0,0,0,0,0,0,0,0,0,0,0,0.946237564
0.00748,0.00374,186.246774,-186.24871,0.04,0,308.940992,0,0,0,0,0,0,0,0,0,0,0,0,1.43945622
0.00752,0.00376,187.195639,-187.196242,0.04,0,311.38992,0,0,0,0,0,0,0,0,0,0,0,0,2.44892883
0.00756,0.00378,188.328378,-188.41679,0.04,1,314.568094,0,0,0,0,0,0,0,0,0,0,0,0,3.17817307
0.00758,0.00379,188.611696,-188.616941,0.02,0,316.896746,0,0,0,0,0,0,0,0,0,0,0,0,2.32865238
0.0076,0.0038,189.082019,-189.085717,0.02,0,317.38609,0,0,0,0,0,0,0,0,0,0,0,0,0.489344358
0.00762,0.00381,189.554585,-189.557148,0.02,0,317.904928,0,0,0,0,0,0,0,0,0,0,0,0,0.518837929
0.00764,0.00382,190.027749,-190.030984,0.02,0,318.967944,0,0,0,0,0,0,0,0,0,0,0,0,1.06301594
0.00766,0.00383,190.502916,-190.505713,0.02,0,319.758539,0,0,0,0,0,0,0,0,0,0,0,0,0.790594816
0.00768,0.00384,190.978008,-190.980726,0.04,0,320.255904,0,0,0,0,0,0,0,0,0,0,0,0,0.497365475
0.00772,0.00386,192.063733,-192.244886,0.04,1,321.827629,0,0,0,0,0,0,0,0,0,0,0,0,1.57172441
0.00776,0.00388,192.973685,-193.136193,0.04,1,324.188098,0,0,0,0,0,0,0,0,0,0,0,0,2.3604691
0.00778,0.00389,193.368873,-193.368458,0.02,0,325.558126,0,0,0,0,0,0,0,0,0,0,0,0,1.3700285
0.0078,0.0039,193.831204,-193.845202,0.02,0,326.154475,0,0,0,0,0,0,0,0,0,0,0,0,0.596349001
0.00782,0.00391,194.309124,-194.311323,0.02,0,326.698179,0,0,0,0,0,0,0,0,0,0,0,0,0.543703318
0.00784,0.00392,194.782047,-194.784726,0.02,0,327.216353,0,0,0,0,0,0,0,0,0,0,0,0,0.51817441
0.00786,0.00393,195.255099,-195.256875,0.02,0,327.693125,0,0,0,0,0,0,0,0,0,0,0,0,0.476771593
0.00788,0.00394,195.724327,-195.738578,0.04,0,328.271846,0,0,0,0,0,0,0,0,0,0,0,0,0.578721046
0.00792,0.00396,196.677325,-196.680891,0.04,0,330.619732,0,0,0,0,0,0,0,0,0,0,0,0,2.34788656
0.00796,0.00398,197.623061,-197.624829,0.04,0,331.987645,0,0,0,0,0,0,0,0,0,0,0,0,1.36791301
0.008,0.004,198.569394,-198.57166,0.04,0,333.38066,0,0,0,0,0,0,0,0,0,0,0,0,1.39301443
0.00804,0.00402,199.515549,-199.517661,0.04,0,335.18833,0,0,0,0,0,0,0,0,0,0,0,0,1.80767012
0.00808,0.00404,200.462721,-200.461599,0.04,0,337.100454,0,0,0,0,0,0,0,0,0,0,0,0,1.9121244
0.00812,0.00406,201.409538,-201.411032,0.08,0,338.901618,0,0,0,0,0,0,0,0,0,0,0,0,1.8011632
0.00816,0.00408,203.034917,-203.070059,0.04,1,341.259496,0,0,0,0,0,0,0,0,0,0,0,0,2.35787821
0.0082,0.0041,203.293653,-203.300354,0.04,1,344.669515,0,0,0,0,0,0,0,0,0,0,0,0,3.4100194
0.00824,0.00412,204.254882,-204.253607,0.04,0,345.924305,0,0,0,0,0,0,0,0,0,0,0,0,1.25479031
0.00828,0.00414,205.207278,-205.206108,0.04,0,347.045094,0,0,0,0,0,0,0,0,0,0,0,0,1.12078857
0.00832,0.00416,206.165735,-206.162387,0.04,0,349.309555,0,0,0,0,0,0,0,0,0,0,0,0,2.26446128
0.00836,0.00418,207.36345,-207.466538,0.08,1,351.393697,0,0,0,0,0,0,0,0,0,0,0,0,2.08414173
0.0084,0.0042,208.1766,-208.356425,0.04,1,354.042778,0,0,0,0,0,0,0,0,0,0,0,0,2.64908123
0.00844,0.00422,209.025031,-209.023823,0.04,0,355.586668,0,0,0,0,0,0,0,0,0,0,0,0,1.54388952
0.00848,0.00424,209.951792,-209.955763,0.04,1,357.132699,0,0,0,0,0,0,0,0,0,0,0,0,1.54603076
0.00852,0.00426,210.908757,-210.907738,0.04,0,358.938364,0,0,0,0,0,0,0,0,0,0,0,0,1.80566549
0.00856,0.00428,211.857759,-211.85473,0.04,0,360.401581,0,0,0,0,0,0,0,0,0,0,0,0,1.46321726
0.0086,0.0043,212.804839,-212.801611,0.08,0,362.180977,0,0,0,0,0,0,0,0,0,0,0,0,1.77939558
0.00864,0.00432,214.02761,-214.146764,0.04,1,368.96542,0,0,0,0,0,0,0,0,0,0,0,0,6.78444266
0.00866,0.00433,214.23437,-214.234078,0.02,0,371.588592,0,0,0,0,0,0,0,0,0,0,0,0,2.62317276
0.00868,0.00434,214.701091,-214.710441,0.02,0,372.341087,0,0,0,0,0,0,0,0,0,0,0,0,0.752494335
0.0087,0.00435,215.166596,-215.183918,0.02,0,373.217018,0,0,0,0,0,0,0,0,0,0,0,0,0.875931025
0.00872,0.00436,215.650118,-215.654526,0.02,0,374.654562,0,0,0,0,0,0,0,0,0,0,0,0,1.43754411
0.00874,0.00437,216.123633,-216.127975,0.02,0,375.777386,0,0,0,0,0,0,0,0,0,0,0,0,1.12282467
0.00876,0.00438,216.597005,-216.60144,0.04,0,376.912554,0,0,0,0,0,0,0,0,0,0,0,0,1.13516736
0.0088,0.0044,217.716909,-217.882714,0.04,1,379.96147,0,0,0,0,0,0,0,0,0,0,0,0,3.0489161
0.00882,0.00441,218.034364,-218.036817,0.02,0,382.919344,0,0,0,0,0,0,0,0,0,0,0,0,2.95787382
0.00884,0.00442,218.495597,-218.502059,0.02,0,383.799978,0,0,0,0,0,0,0,0,0,0,0,0,0.880634546
0.00886,0.00443,218.969471,-218.973665,0.02,0,384.91243,0,0,0,0,0,0,0,0,0,0,0,0,1.11245179
0.00888,0.00444,219.44178,-219.445507,0.02,0,385.572415,0,0,0,0,0,0,0,0,0,0,0,0,0.659985304
0.0089,0.00445,219.913853,-219.91784,0.02,0,386.059536,0,0,0,0,0,0,0,0,0,0,0,0,0.487120628
0.00892,0.00446,220.386587,-220.390544,0.04,0,386.551511,0,0,0,0,0,0,0,0,0,0,0,0,0.491974592
0.00896,0.00448,221.537639,-221.701277,0.04,1,389.707461,0,0,0,0,0,0,0,0,0,0,0,0,3.15595007
0.009,0.0045,222.524414,-222.674222,0.04,1,392.031942,0,0,0,0,0,0,0,0,0,0,0,0,2.32448101
0.00902,0.00451,222.763869,-222.763762,0.02,0,393.688766,0,0,0,0,0,0,0,0,0,0,0,0,1.65682411
0.00904,0.00452,223.226008,-223.24365,0.02,0,394.432085,0,0,0,0,0,0,0,0,0,0,0,0,0.743319273
0.00906,0.00453,223.708595,-223.714493,0.02,0,395.105896,0,0,0,0,0,0,0,0,0,0,0,0,0.673810959
0.00908,0.00454,224.182405,-224.187695,0.02,0,395.925601,0,0,0,0,0,0,0,0,0,0,0,0,0.819705486
0.0091,0.00455,224.657242,-224.660881,0.02,0,396.725216,0,0,0,0,0,0,0,0,0,0,0,0,0.799614429
0.00912,0.00456,225.131308,-225.135818,0.04,0,397.280059,0,0,0,0,0,0,0,0,0,0,0,0,0.554843187
0.00916,0.00458,226.743114,-226.825687,0.04,1,399.229391,0,0,0,0,0,0,0,0,0,0,0,0,1.94933176
0.00918,0.00459,226.558857,-226.558845,0.02,0,401.038469,0,0,0,0,0,0,0,0,0,0,0,0,1.80907822
0.0092,0.0046,227.04413,-227.042989,0.02,0,401.718305,0,0,0,0,0,0,0,0,0,0,0,0,0.679836273
0.00922,0.00461,227.529285,-227.528507,0.02,0,402.737912,0,0,0,0,0,0,0,0,0,0,0,0,1.01960659
0.00924,0.00462,228.015656,-228.014973,0.02,0,404.408082,0,0,0,0,0,0,0,0,0,0,0,0,1.67017007
0.00926,0.00463,228.502363,-228.501692,0.02,0,405.292345,0,0,0,0,0,0,0,0,0,0,0,0,0.884263039
0.00928,0.00464,228.988901,-228.988244,0.04,0,406.242981,0,0,0,0,0,0,0,0,0,0,0,0,0.950636387
0.00932,0.00466,230.153183,-230.32649,0.04,1,408.136757,0,0,0,0,0,0,0,0,0,0,0,0,1.8937757
0.00934,0.00467,230.461128,-230.46066,0.02,0,409.57046,0,0,0,0,0,0,0,0,0,0,0,0,1.43370271
0.00936,0.00468,230.942056,-230.941253,0.02,0,410.129809,0,0,0,0,0,0,0,0,0,0,0,0,0.559349537
0.00937,0.004685,231.17621,-231.186492,0.01,0,410.903756,0,0,0,0,0,0,0,0,0,0,0,0,0.773946285
0.00938,0.00469,231.426862,-231.426037,0.01,0,411.238365,0,0,0,0,0,0,0,0,0,0,0,0,0.334609747
0.00939,0.004695,231.660321,-231.670886,0.01,0,411.574484,0,0,0,0,0,0,0,0,0,0,0,0,0.33611846
0.0094,0.0047,231.911162,-231.910259,0.01,0,411.91218,0,0,0,0,0,0,0,0,0,0,0,0,0.337696314
0.00941,0.004705,232.153102,-232.152276,0.01,0,412.24841,0,0,0,0,0,0,0,0,0,0,0,0,0.336229563
0.00942,0.00471,232.395411,-232.394479,0.02,0,412.584871,0,0,0,0,0,0,0,0,0,0,0,0,0.336461067
0.00944,0.00472,232.86815,-232.885092,0.02,0,413.003377,0,0,0,0,0,0,0,0,0,0,0,0,0.418506145
0.00946,0.00473,233.361974,-233.366475,0.02,0,413.41215,0,0,0,0,0,0,0,0,0,0,0,0,0.408772707
0.00948,0.00474,233.844927,-233.844321,0.02,0,414.161934,0,0,0,0,0,0,0,0,0,0,0,0,0.749784708
0.0095,0.00475,234.329228,-234.334116,0.02,0,414.648457,0,0,0,0,0,0,0,0,0,0,0,0,0.486522675
0.00952,0.00476,234.813819,-234.81824,0.02,0,415.133241,0,0,0,0,0,0,0,0,0,0,0,0,0.484783649
0.00954,0.00477,235.297715,-235.302048,0.04,0,415.60908,0,0,0,0,0,0,0,0,0,0,0,0,0.475839376
0.00958,0.00479,236.435911,-236.595203,0.04,1,417.266731,0,0,0,0,0,0,0,0,0,0,0,0,1.65765095
0.0096,0.0048,236.762496,-236.764567,0.02,0,418.6554,0,0,0,0,0,0,0,0,0,0,0,0,1.38866925
0.00962,0.00481,237.237578,-237.236789,0.02,0,419.244882,0,0,0,0,0,0,0,0,0,0,0,0,0.589481354
0.00964,0.00482,237.718035,-237.717562,0.02,0,419.804967,0,0,0,0,0,0,0,0,0,0,0,0,0.560085535
0.00966,0.00483,238.200227,-238.204421,0.02,0,420.219803,0,0,0,0,0,0,0,0,0,0,0,0,0.414835691
0.00968,0.00484,238.683824,-238.68811,0.02,0,420.631341,0,0,0,0,0,0,0,0,0,0,0,0,0.411538601
0.0097,0.00485,239.165917,-239.171172,0.04,0,421.017203,0,0,0,0,0,0,0,0,0,0,0,0,0.385861874
0.00974,0.00487,240.390837,-240.530823,0.04,1,422.227173,0,0,0,0,0,0,0,0,0,0,0,0,1.20997
0.00978,0.00489,241.277708,-241.483153,0.04,1,423.631515,0,0,0,0,0,0,0,0,0,0,0,0,1.40434194
0.0098,0.0049,241.597373,-241.597212,0.02,0,424.900657,0,0,0,0,0,0,0,0,0,0,0,0,1.26914167
0.00982,0.00491,242.073837,-242.072921,0.02,0,425.470085,0,0,0,0,0,0,0,0,0,0,0,0,0.569428205
0.00984,0.00492,242.551884,-242.55127,0.02,0,426.050334,0,0,0,0,0,0,0,0,0,0,0,0,0.580248833
0.00986,0.00493,243.03198,-243.031389,0.02,0,426.619269,0,0,0,0,0,0,0,0,0,0,0,0,0.568934679
0.00988,0.00494,243.512514,-243.511907,0.02,0,427.220338,0,0,0,0,0,0,0,0,0,0,0,0,0.601068974
0.0099,0.00495,243.993753,-243.993128,0.04,0,427.764575,0,0,0,0,0,0,0,0,0,0,0,0,0.544236898
0.00994,0.00497,245.573299,-245.733758,0.04,1,429.361583,0,0,0,0,0,0,0,0,0,0,0,0,1.59700799
0.00998,0.00499,246.170341,-246.370739,0.04,1,430.672902,0,0,0,0,0,0,0,0,0,0,0,0,1.31131959
0.01,0.005,246.433322,-246.432678,0.02,0,431.90542,0,0,0,0,0,0,0,0,0,0,0,0,1.23251796
0.01002,0.00501,246.917028,-246.915474,0.02,0,432.561551,0,0,0,0,0,0,0,0,0,0,0,0,0.656130552
0.01004,0.00502,247.401738,-247.400659,0.02,0,433.149845,0,0,0,0,0,0,0,0,0,0,0,0,0.588294506
0.01006,0.00503,247.889117,-247.887867,0.02,0,433.765572,0,0,0,0,0,0,0,0,0,0,0,0,0.615727186
0.01008,0.00504,248.377686,-248.37665,0.02,0,434.351295,0,0,0,0,0,0,0,0,0,0,0,0,0.585722208
0.0101,0.00505,248.86654,-248.865554,0.04,0,434.988923,0,0,0,0,0,0,0,0,0,0,0,0,0.637628555
0.01012,0.00506,249.355434,-249.35456,0.02,0,438.336133,0,0,0,0,0,0,0,0,0,0,0,0,3.34720945
0.01014,0.00507,249.842189,-249.851876,0.02,0,438.75138,0,0,0,0,0,0,0,0,0,0,0,0,0.415247202
0.01016,0.00508,250.334453,-250.33341,0.02,0,439.30465,0,0,0,0,0,0,0,0,0,0,0,0,0.553269863
0.01018,0.00509,250.823457,-250.822608,0.02,0,439.854466,0,0,0,0,0,0,0,0,0,0,0,0,0.54981637
0.0102,0.0051,251.313739,-251.312651,0.02,0,440.396859,0,0,0,0,0,0,0,0,0,0,0,0,0.542393208
0.01022,0.00511,251.803076,-251.802138,0.04,0,441.000597,0,0,0,0,0,0,0,0,0,0,0,0,0.603737354
0.01026,0.00513,252.766551,-252.772435,0.04,1,444.8673,0,0,0,0,0,0,0,0,0,0,0,0,3.86670375
0.01028,0.00514,253.264914,-253.264106,0.02,0,446.433973,0,0,0,0,0,0,0,0,0,0,0,0,1.5666728
0.0103,0.00515,253.755624,-253.754768,0.02,0,447.089503,0,0,0,0,0,0,0,0,0,0,0,0,0.655529976
0.01032,0.00516,254.246104,-254.245154,0.02,0,447.69112,0,0,0,0,0,0,0,0,0,0,0,0,0.601616621
0.01034,0.00517,254.735836,-254.734816,0.02,0,448.423269,0,0,0,0,0,0,0,0,0,0,0,0,0.732149601
0.01036,0.00518,255.225578,-255.224443,0.02,0,449.065251,0,0,0,0,0,0,0,0,0,0,0,0,0.641981363
0.01038,0.00519,255.713996,-255.712946,0.04,0,449.653353,0,0,0,0,0,0,0,0,0,0,0,0,0.588102579
0.01042,0.00521,256.674532,-256.678823,0.04,1,451.654234,0,0,0,0,0,0,0,0,0,0,0,0,2.0008812
0.01044,0.00522,257.173668,-257.172744,0.02,0,453.087569,0,0,0,0,0,0,0,0,0,0,0,0,1.43333507
0.01046,0.00523,257.662915,-257.661953,0.02,0,453.622484,0,0,0,0,0,0,0,0,0,0,0,0,0.534914255
0.01048,0.00524,258.152635,-258.151629,0.02,0,454.188579,0,0,0,0,0,0,0,0,0,0,0,0,0.566094875
0.0105,0.00525,258.64073,-258.639737,0.02,0,454.793896,0,0,0,0,0,0,0,0,0,0,0,0,0.605317354
0.01052,0.00526,259.127014,-259.126892,0.02,0,455.649918,0,0,0,0,0,0,0,0,0,0,0,0,0.856022358
0.01054,0.00527,259.614647,-259.614497,0.04,0,456.405572,0,0,0,0,0,0,0,0,0,0,0,0,0.755653858
0.01058,0.00529,260.588045,-260.591859,0.04,0,459.977523,0,0,0,0,0,0,0,0,0,0,0,0,3.57195091
0.0106,0.0053,261.076715,-261.076606,0.02,0,463.671299,0,0,0,0,0,0,0,0,0,0,0,0,3.69377637
0.01062,0.00531,261.561633,-261.562612,0.02,0,464.610464,0,0,0,0,0,0,0,0,0,0,0,0,0.939164639
0.01064,0.00532,262.048426,-262.049409,0.02,0,465.424894,0,0,0,0,0,0,0,0,0,0,0,0,0.814429998
0.01066,0.00533,262.5352,-262.536082,0.02,0,466.509918,0,0,0,0,0,0,0,0,0,0,0,0,1.08502388
0.01068,0.00534,263.013736,-263.036424,0.02,0,467.315463,0,0,0,0,0,0,0,0,0,0,0,0,0.805544615
0.0107,0.00535,263.509249,-263.509599,0.04,0,468.292623,0,0,0,0,0,0,0,0,0,0,0,0,0.977159977
0.01074,0.00537,264.466402,-264.472695,0.04,1,471.020174,0,0,0,0,0,0,0,0,0,0,0,0,2.7275517
0.01076,0.00538,264.964031,-264.964886,0.02,0,480.058056,0,0,0,0,0,0,0,0,0,0,0,0,9.03788209
0.01078,0.00539,265.449887,-265.449879,0.02,0,482.233275,0,0,0,0,0,0,0,0,0,0,0,0,2.17521882
0.0108,0.0054,265.936453,-265.937216,0.02,0,485.056072,0,0,0,0,0,0,0,0,0,0,0,0,2.82279682
0.01082,0.00541,266.423189,-266.424294,0.02,0,487.076115,0,0,0,0,0,0,0,0,0,0,0,0,2.02004266
0.01084,0.00542,266.909686,-266.910811,0.02,0,489.735081,0,0,0,0,0,0,0,0,0,0,0,0,2.65896678
0.01086,0.00543,267.396477,-267.396555,0.04,0,491.30948,0,0,0,0,0,0,0,0,0,0,0,0,1.57439876
0.0109,0.00545,268.367656,-268.364686,0.04,0,493.612138,0,0,0,0,0,0,0,0,0,0,0,0,2.30265784
0.01092,0.00546,268.854446,-268.854012,0.02,0,496.526768,0,0,0,0,0,0,0,0,0,0,0,0,2.91463017
0.01094,0.00547,269.33952,-269.340084,0.02,0,497.843102,0,0,0,0,0,0,0,0,0,0,0,0,1.31633401
0.01096,0.00548,269.824931,-269.826164,0.02,0,499.161821,0,0,0,0,0,0,0,0,0,0,0,0,1.31871891
0.01098,0.00549,270.310403,-270.311617,0.02,0,500.404503,0,0,0,0,0,0,0,0,0,0,0,0,1.2426815
0.011,0.0055,270.795726,-270.796982,0.02,0,501.82847,0,0,0,0,0,0,0,0,0,0,0,0,1.42396688
0.01102,0.00551,271.281499,-271.281636,0.04,0,502.80448,0,0,0,0,0,0,0,0,0,0,0,0,0.976010323
0.01106,0.00553,272.491259,-272.654364,0.04,1,506.371068,0,0,0,0,0,0,0,0,0,0,0,0,3.5665884
0.0111,0.00555,273.438698,-273.637038,0.04,1,508.537132,0,0,0,0,0,0,0,0,0,0,0,0,2.16606355
0.01114,0.00557,274.39529,-274.625744,0.04,1,510.829699,0,0,0,0,0,0,0,0,0,0,0,0,2.29256725
0.01116,0.00558,274.69977,-274.699682,0.02,0,515.385571,0,0,0,0,0,0,0,0,0,0,0,0,4.55587244
0.01118,0.00559,275.187024,-275.187052,0.02,0,516.218761,0,0,0,0,0,0,0,0,0,0,0,0,0.833189487
0.0112,0.0056,275.674316,-275.673955,0.02,0,516.931552,0,0,0,0,0,0,0,0,0,0,0,0,0.712790966
0.01122,0.00561,276.164643,-276.164579,0.02,0,517.772184,0,0,0,0,0,0,0,0,0,0,0,0,0.840632439
0.01124,0.00562,276.655789,-276.655646,0.02,0,518.479673,0,0,0,0,0,0,0,0,0,0,0,0,0.707489014
0.01126,0.00563,277.147338,-277.147414,0.04,0,519.214099,0,0,0,0,0,0,0,0,0,0,0,0,0.734426022
0.0113,0.00565,278.129658,-278.132287,0.04,0,522.184095,0,0,0,0,0,0,0,0,0,0,0,0,2.96999574
0.01132,0.00566,278.626889,-278.627913,0.02,0,523.97825,0,0,0,0,0,0,0,0,0,0,0,0,1.79415464
0.01134,0.00567,279.11315,-279.113347,0.02,0,524.537695,0,0,0,0,0,0,0,0,0,0,0,0,0.55944562
0.01136,0.00568,279.604062,-279.604608,0.02,0,525.10812,0,0,0,0,0,0,0,0,0,0,0,0,0.570425034
0.01138,0.00569,280.097034,-280.09671,0.02,0,525.648345,0,0,0,0,0,0,0,0,0,0,0,0,0.540224552
0.0114,0.0057,280.588501,-280.588341,0.02,0,526.214368,0,0,0,0,0,0,0,0,0,0,0,0,0.566023111
0.01142,0.00571,281.079297,-281.079341,0.04,0,526.782153,0,0,0,0,0,0,0,0,0,0,0,0,0.567785263
0.01146,0.00573,282.045115,-282.051909,0.04,1,529.020431,0,0,0,0,0,0,0,0,0,0,0,0,2.2382772
0.0115,0.00575,283.221663,-283.373623,0.04,1,532.303864,0,0,0,0,0,0,0,0,0,0,0,0,3.28343344
0.01154,0.00577,284.164197,-284.364679,0.04,1,536.75501,0,0,0,0,0,0,0,0,0,0,0,0,4.45114613
0.01158,0.00579,285.015691,-285.013822,0.04,0,538.71482,0,0,0,0,0,0,0,0,0,0,0,0,1.95981026
0.01162,0.00581,286.144072,-286.313855,0.04,1,540.188233,0,0,0,0,0,0,0,0,0,0,0,0,1.47341228
0.01166,0.00583,287.253637,-287.482702,0.08,1,542.361971,0,0,0,0,0,0,0,0,0,0,0,0,2.173738
0.0117,0.00585,287.97726,-287.980265,0.04,0,546.213198,0,0,0,0,0,0,0,0,0,0,0,0,3.85122728
0.01174,0.00587,289.522916,-289.708036,0.04,1,547.672433,0,0,0,0,0,0,0,0,0,0,0,0,1.45923543
0.01178,0.00589,290.258205,-290.456617,0.04,1,550.224635,0,0,0,0,0,0,0,0,0,0,0,0,2.55220127
0.01182,0.00591,291.18088,-291.410327,0.04,1,552.24864,0,0,0,0,0,0,0,0,0,0,0,0,2.02400517
0.01184,0.00592,291.418348,-291.417787,0.02,0,554.466572,0,0,0,0,0,0,0,0,0,0,0,0,2.21793222
0.01186,0.00593,291.919432,-291.919866,0.02,0,555.533936,0,0,0,0,0,0,0,0,0,0,0,0,1.0673635
0.01188,0.00594,292.423844,-292.423153,0.02,0,556.281697,0,0,0,0,0,0,0,0,0,0,0,0,0.74776125
0.0119,0.00595,292.928635,-292.928031,0.02,0,557.197988,0,0,0,0,0,0,0,0,0,0,0,0,0.916290998
0.01192,0.00596,293.433848,-293.433428,0.02,0,558.029226,0,0,0,0,0,0,0,0,0,0,0,0,0.831238508
0.01194,0.00597,293.939095,-293.938909,0.04,0,558.573103,0,0,0,0,0,0,0,0,0,0,0,0,0.543876648
0.01198,0.00599,295.223915,-295.374965,0.04,1,560.736463,0,0,0,0,0,0,0,0,0,0,0,0,2.16336036
0.01202,0.00601,295.956408,-295.964644,0.04,1,564.308778,0,0,0,0,0,0,0,0,0,0,0,0,3.5723145
0.01206,0.00603,296.971188,-296.973276,0.04,0,570.134752,0,0,0,0,0,0,0,0,0,0,0,0,5.82597423
0.01208,0.00604,297.477619,-297.478885,0.02,0,572.822875,0,0,0,0,0,0,0,0,0,0,0,0,2.68812346
0.0121,0.00605,297.980941,-297.980717,0.02,0,574.010014,0,0,0,0,0,0,0,0,0,0,0,0,1.1871388
0.01212,0.00606,298.48658,-298.487145,0.02,0,575.376293,0,0,0,0,0,0,0,0,0,0,0,0,1.36627913
0.01214,0.00607,298.990496,-298.99046,0.02,0,576.749011,0,0,0,0,0,0,0,0,0,0,0,0,1.37271738
0.01216,0.00608,299.495169,-299.495516,0.02,0,578.059503,0,0,0,0,0,0,0,0,0,0,0,0,1.31049228
0.01218,0.00609,299.999662,-299.999809,0.04,0,579.453352,0,0,0,0,0,0,0,0,0,0,0,0,1.39384866
0.01222,0.00611,301.365705,-301.554524,0.04,1,583.308223,0,0,0,0,0,0,0,0,0,0,0,0,3.85487151
0.01224,0.00612,301.524826,-301.525446,0.02,0,585.91751,0,0,0,0,0,0,0,0,0,0,0,0,2.60928679
0.01226,0.00613,302.024478,-302.024226,0.02,0,586.526249,0,0,0,0,0,0,0,0,0,0,0,0,0.608738899
0.01228,0.00614,302.53119,-302.530281,0.02,0,587.268355,0,0,0,0,0,0,0,0,0,0,0,0,0.742105722
0.0123,0.00615,303.036643,-303.035706,0.02,0,587.944993,0,0,0,0,0,0,0,0,0,0,0,0,0.676638126
0.01232,0.00616,303.541151,-303.539954,0.02,0,588.516697,0,0,0,0,0,0,0,0,0,0,0,0,0.571704388
0.01234,0.00617,304.048055,-304.04703,0.04,0,589.163599,0,0,0,0,0,0,0,0,0,0,0,0,0.646901369
0.01238,0.00619,305.393895,-305.583424,0.04,1,590.754322,0,0,0,0,0,0,0,0,0,0,0,0,1.59072328
0.0124,0.0062,305.591861,-305.592349,0.02,0,592.201803,0,0,0,0,0,0,0,0,0,0,0,0,1.44748092
0.01242,0.00621,306.093473,-306.092356,0.02,0,592.722224,0,0,0,0,0,0,0,0,0,0,0,0,0.520421505
0.01244,0.00622,306.59872,-306.597115,0.02,0,593.258401,0,0,0,0,0,0,0,0,0,0,0,0,0.536176443
0.01246,0.00623,307.10468,-307.103378,0.02,0,593.828455,0,0,0,0,0,0,0,0,0,0,0,0,0.57005477
0.01248,0.00624,307.611921,-307.611459,0.02,0,594.379834,0,0,0,0,0,0,0,0,0,0,0,0,0.551378727
0.0125,0.00625,308.118043,-308.117541,0.04,0,594.941758,0,0,0,0,0,0,0,0,0,0,0,0,0.561923742
0.01254,0.00627,309.129293,-309.130222,0.04,0,597.708857,0,0,0,0,0,0,0,0,0,0,0,0,2.76709867
0.01258,0.00629,310.513007,-310.687229,0.04,1,599.179728,0,0,0,0,0,0,0,0,0,0,0,0,1.47087169
0.0126,0.0063,310.657311,-310.657074,0.02,0,600.850108,0,0,0,0,0,0,0,0,0,0,0,0,1.67037964
0.01262,0.00631,311.164175,-311.16443,0.02,0,601.425353,0,0,0,0,0,0,0,0,0,0,0,0,0.575245142
0.01264,0.00632,311.676188,-311.675984,0.02,0,602.007103,0,0,0,0,0,0,0,0,0,0,0,0,0.581750393
0.01266,0.00633,312.186033,-312.185127,0.02,0,602.730695,0,0,0,0,0,0,0,0,0,0,0,0,0.723591805
0.01268,0.00634,312.697423,-312.696577,0.02,0,603.350861,0,0,0,0,0,0,0,0,0,0,0,0,0.620165825
0.0127,0.00635,313.208317,-313.208058,0.04,0,603.97188,0,0,0,0,0,0,0,0,0,0,0,0,0.621018648
0.01274,0.00637,314.680063,-314.830651,0.04,1,606.212656,0,0,0,0,0,0,0,0,0,0,0,0,2.24077582
0.01276,0.00638,314.759,-314.758774,0.02,0,608.170024,0,0,0,0,0,0,0,0,0,0,0,0,1.95736861
0.01278,0.00639,315.264385,-315.264418,0.02,0,609.217603,0,0,0,0,0,0,0,0,0,0,0,0,1.04757857
0.0128,0.0064,315.771719,-315.770664,0.02,0,609.873665,0,0,0,0,0,0,0,0,0,0,0,0,0.656062365
0.01282,0.00641,316.281028,-316.27995,0.02,0,610.700405,0,0,0,0,0,0,0,0,0,0,0,0,0.826740265
0.01284,0.00642,316.791964,-316.790959,0.02,0,611.679712,0,0,0,0,0,0,0,0,0,0,0,0,0.979306936
0.01286,0.00643,317.302113,-317.301284,0.04,0,612.345195,0,0,0,0,0,0,0,0,0,0,0,0,0.665482998
0.0129,0.00645,318.753917,-318.938042,0.04,1,614.46728,0,0,0,0,0,0,0,0,0,0,0,0,2.12208438
0.01294,0.00647,319.817441,-320.08923,0.04,1,617.498557,0,0,0,0,0,0,0,0,0,0,0,0,3.03127766
0.01298,0.00649,320.729998,-321.013131,0.04,1,621.579711,0,0,0,0,0,0,0,0,0,0,0,0,4.08115339
0.01302,0.00651,321.418298,-321.418827,0.04,0,623.483101,0,0,0,0,0,0,0,0,0,0,0,0,1.90339017
0.01306,0.00653,322.823047,-323.001313,0.04,1,625.181187,0,0,0,0,0,0,0,0,0,0,0,0,1.69808602
0.0131,0.00655,323.816619,-324.02582,0.08,1,627.006331,0,0,0,0,0,0,0,0,0,0,0,0,1.82514381
0.01312,0.00656,323.947921,-323.949067,0.02,0,629.411631,0,0,0,0,0,0,0,0,0,0,0,0,2.40530014
0.01314,0.00657,324.463165,-324.464514,0.02,0,630.017614,0,0,0,0,0,0,0,0,0,0,0,0,0.60598278
0.01316,0.00658,324.977478,-324.976953,0.02,0,630.644698,0,0,0,0,0,0,0,0,0,0,0,0,0.627084494
0.01318,0.00659,325.496073,-325.495571,0.02,0,631.389935,0,0,0,0,0,0,0,0,0,0,0,0,0.745236874
0.0132,0.0066,326.012742,-326.011791,0.02,0,632.206653,0,0,0,0,0,0,0,0,0,0,0,0,0.81671834
0.01322,0.00661,326.530213,-326.529518,0.04,0,633.239202,0,0,0,0,0,0,0,0,0,0,0,0,1.03254867
0.01326,0.00663,328.02872,-328.227771,0.04,1,636.390407,0,0,0,0,0,0,0,0,0,0,0,0,3.15120482
0.01328,0.00664,328.107642,-328.10732,0.02,0,639.633367,0,0,0,0,0,0,0,0,0,0,0,0,3.24295998
0.0133,0.00665,328.618734,-328.620686,0.02,0,640.905049,0,0,0,0,0,0,0,0,0,0,0,0,1.27168179
0.01332,0.00666,329.135732,-329.134951,0.02,0,641.817013,0,0,0,0,0,0,0,0,0,0,0,0,0.911964417
0.01334,0.00667,329.653636,-329.652651,0.02,0,642.500897,0,0,0,0,0,0,0,0,0,0,0,0,0.683884144
0.01336,0.00668,330.169977,-330.169305,0.02,0,643.338374,0,0,0,0,0,0,0,0,0,0,0,0,0.837476492
0.01338,0.00669,330.686701,-330.685953,0.04,0,644.014868,0,0,0,0,0,0,0,0,0,0,0,0,0.676494598
0.01342,0.00671,332.166275,-332.367132,0.04,1,645.53254,0,0,0,0,0,0,0,0,0,0,0,0,1.51767206
0.01346,0.00673,333.268615,-333.551246,0.04,1,647.188318,0,0,0,0,0,0,0,0,0,0,0,0,1.65577722
0.01348,0.00674,333.319892,-333.319815,0.02,0,649.121113,0,0,0,0,0,0,0,0,0,0,0,0,1.93279505
0.0135,0.00675,333.837351,-333.838317,0.02,0,649.99528,0,0,0,0,0,0,0,0,0,0,0,0,0.874167681
0.01352,0.00676,334.358855,-334.358717,0.02,0,651.880974,0,0,0,0,0,0,0,0,0,0,0,0,1.88569379
0.01354,0.00677,334.882906,-334.881401,0.02,0,653.193904,0,0,0,0,0,0,0,0,0,0,0,0,1.31293011
0.01356,0.00678,335.40678,-335.405499,0.02,0,654.198974,0,0,0,0,0,0,0,0,0,0,0,0,1.00506997
0.01358,0.00679,335.932007,-335.931279,0.04,0,655.083247,0,0,0,0,0,0,0,0,0,0,0,0,0.884273052
0.01362,0.00681,337.476903,-337.670614,0.04,1,657.05993,0,0,0,0,0,0,0,0,0,0,0,0,1.97668242
0.01364,0.00682,337.527429,-337.527022,0.02,0,658.404275,0,0,0,0,0,0,0,0,0,0,0,0,1.34434533
0.01366,0.00683,338.04482,-338.045775,0.02,0,659.139809,0,0,0,0,0,0,0,0,0,0,0,0,0.735533714
0.01368,0.00684,338.569224,-338.568503,0.02,0,659.713473,0,0,0,0,0,0,0,0,0,0,0,0,0.573664427
0.0137,0.00685,339.093053,-339.092228,0.02,0,660.324674,0,0,0,0,0,0,0,0,0,0,0,0,0.611201286
0.01372,0.00686,339.616409,-339.615415,0.02,0,660.966679,0,0,0,0,0,0,0,0,0,0,0,0,0.642004728
0.01374,0.00687,340.141726,-340.141004,0.04,0,661.570278,0,0,0,0,0,0,0,0,0,0,0,0,0.603598595
0.01378,0.00689,341.679016,-341.89441,0.04,1,663.642524,0,0,0,0,0,0,0,0,0,0,0,0,2.07224631
0.01382,0.00691,342.241079,-342.254066,0.04,1,666.262124,0,0,0,0,0,0,0,0,0,0,0,0,2.61959958
0.01386,0.00693,343.76241,-343.925933,0.04,1,668.330365,0,0,0,0,0,0,0,0,0,0,0,0,2.06824112
0.01388,0.00694,343.835445,-343.835474,0.02,0,671.054898,0,0,0,0,0,0,0,0,0,0,0,0,2.72453356
0.0139,0.00695,344.353593,-344.355099,0.02,0,672.179379,0,0,0,0,0,0,0,0,0,0,0,0,1.12448096
0.01392,0.00696,344.877618,-344.8771,0.02,0,673.067998,0,0,0,0,0,0,0,0,0,0,0,0,0.888618469
0.01394,0.00697,345.402768,-345.401671,0.02,0,673.775784,0,0,0,0,0,0,0,0,0,0,0,0,0.707786322
0.01396,0.00698,345.926098,-345.925749,0.02,0,674.948191,0,0,0,0,0,0,0,0,0,0,0,0,1.17240691
0.01398,0.00699,346.452068,-346.451522,0.04,0,675.984443,0,0,0,0,0,0,0,0,0,0,0,0,1.03625178
0.01402,0.00701,347.95762,-348.163163,0.04,1,678.560709,0,0,0,0,0,0,0,0,0,0,0,0,2.57626605
0.01406,0.00703,348.564158,-348.562405,0.04,0,680.472569,0,0,0,0,0,0,0,0,0,0,0,0,1.91185975
0.0141,0.00705,349.903008,-350.071893,0.04,1,682.049663,0,0,0,0,0,0,0,0,0,0,0,0,1.57709455
0.01414,0.00707,350.663048,-350.661464,0.04,0,684.445313,0,0,0,0,0,0,0,0,0,0,0,0,2.39565015
0.01418,0.00709,351.711306,-351.716228,0.04,0,687.508374,0,0,0,0,0,0,0,0,0,0,0,0,3.06306052
