# ADR90 WP-A2 tau=0 band, build 37d0891acb80c9194f7e10b4fd5b486f6aee8951 (expected any), leg h1.0_e0.6944
s_m,s_over_B,q_foot_kPa,q_base_kPa,ds_mm,relaxed,wall_s,implex_err_avg,implex_refusals,guard_floor,guard_f0,guard_hold,guard_res,guard_ctlf,substeps_tot,substeps_max,substeps_max_ele,substeps_ring_tot,substeps_ring_max,wall_step_s
5e-06,2.5e-06,0.202766616,-0.20336428,0.005,0,0.442243099,0,0,0,0,0,0,0,0,0,0,0,0,0.442243099
1e-05,5e-06,0.403281561,-0.403547084,0.005,0,0.494164467,0,0,0,0,0,0,0,0,0,0,0,0,0.0519213676
1.5e-05,7.5e-06,0.60180574,-0.602352223,0.005,0,0.552907228,0,0,0,0,0,0,0,0,0,0,0,0,0.0587427616
2e-05,1e-05,0.798234933,-0.79907959,0.005,0,0.615784645,0,0,0,0,0,0,0,0,0,0,0,0,0.0628774166
2.5e-05,1.25e-05,0.992752972,-0.993914828,0.005,0,0.679930687,0,0,0,0,0,0,0,0,0,0,0,0,0.0641460419
3e-05,1.5e-05,1.18511442,-1.18631783,0.01,0,0.757050276,0,0,0,0,0,0,0,0,0,0,0,0,0.0771195889
4e-05,2e-05,1.56748814,-1.57091605,0.01,0,0.840288401,0,0,0,0,0,0,0,0,0,0,0,0,0.0832381248
5e-05,2.5e-05,1.9285863,-1.92885493,0.01,0,1.0039537,0,0,0,0,0,0,0,0,0,0,0,0,0.163665295
6e-05,3e-05,2.29469646,-2.29498325,0.01,0,1.19302583,0,0,0,0,0,0,0,0,0,0,0,0,0.189072132
7e-05,3.5e-05,2.65661382,-2.65696529,0.01,0,1.37759542,0,0,0,0,0,0,0,0,0,0,0,0,0.184569597
8e-05,4e-05,3.01477238,-3.01519092,0.01,0,1.58351636,0,0,0,0,0,0,0,0,0,0,0,0,0.205920935
9e-05,4.5e-05,3.36950204,-3.36998758,0.02,0,1.80493808,0,0,0,0,0,0,0,0,0,0,0,0,0.221421719
0.00011,5.5e-05,4.0641099,-4.06572113,0.02,0,2.07183003,0,0,0,0,0,0,0,0,0,0,0,0,0.266891956
0.00013,6.5e-05,4.74810413,-4.7501097,0.02,0,2.3652339,0,0,0,0,0,0,0,0,0,0,0,0,0.293403864
0.00015,7.5e-05,5.42276292,-5.42543001,0.02,0,2.67840815,0,0,0,0,0,0,0,0,0,0,0,0,0.313174248
0.00017,8.5e-05,6.08926611,-6.0923966,0.02,0,3.01755452,0,0,0,0,0,0,0,0,0,0,0,0,0.339146376
0.00019,9.5e-05,6.74830958,-6.75197217,0.02,0,3.35744309,0,0,0,0,0,0,0,0,0,0,0,0,0.339888573
0.00021,0.000105,7.40050971,-7.40467875,0.04,0,3.69800925,0,0,0,0,0,0,0,0,0,0,0,0,0.340566158
0.00025,0.000125,8.66840485,-8.68123731,0.04,0,4.10486031,0,0,0,0,0,0,0,0,0,0,0,0,0.406851053
0.00029,0.000145,9.92504332,-9.94012352,0.04,0,4.49102783,0,0,0,0,0,0,0,0,0,0,0,0,0.386167526
0.00033,0.000165,11.1565504,-11.1665045,0.04,0,4.88349128,0,0,0,0,0,0,0,0,0,0,0,0,0.392463446
0.00037,0.000185,12.3682698,-12.388341,0.04,0,5.1839478,0,0,0,0,0,0,0,0,0,0,0,0,0.300456524
0.00041,0.000205,13.5751094,-13.5862867,0.04,0,5.45809102,0,0,0,0,0,0,0,0,0,0,0,0,0.274143219
0.00045,0.000225,14.7700515,-14.7704926,0.08,0,5.87781072,0,0,0,0,0,0,0,0,0,0,0,0,0.419719696
0.00049,0.000245,15.9473689,-15.9479044,0.04,0,6.98014379,0,0,0,0,0,0,0,0,0,0,0,0,1.10233307
0.00053,0.000265,17.1133493,-17.1143203,0.04,0,7.40622544,0,0,0,0,0,0,0,0,0,0,0,0,0.426081657
0.00057,0.000285,18.2694802,-18.2703437,0.04,0,7.80328321,0,0,0,0,0,0,0,0,0,0,0,0,0.397057772
0.00061,0.000305,19.4155263,-19.4173368,0.04,0,8.2037878,0,0,0,0,0,0,0,0,0,0,0,0,0.400504589
0.00065,0.000325,20.5528093,-20.5541377,0.04,0,8.61105299,0,0,0,0,0,0,0,0,0,0,0,0,0.407265186
0.00069,0.000345,21.6810058,-21.6839762,0.08,0,9.01515603,0,0,0,0,0,0,0,0,0,0,0,0,0.404103041
0.00073,0.000365,22.8039527,-22.8035851,0.04,0,10.2246263,0,0,0,0,0,0,0,0,0,0,0,0,1.20947027
0.00075,0.000375,23.3634159,-23.3632731,0.02,0,11.0612249,0,0,0,0,0,0,0,0,0,0,0,0,0.836598635
0.00077,0.000385,23.9222109,-23.9226401,0.02,0,11.4368153,0,0,0,0,0,0,0,0,0,0,0,0,0.375590324
0.00079,0.000395,24.4793125,-24.4800839,0.02,0,12.0784881,0,0,0,0,0,0,0,0,0,0,0,0,0.64167285
0.00081,0.000405,25.0346206,-25.0351581,0.02,0,12.501256,0,0,0,0,0,0,0,0,0,0,0,0,0.422767878
0.00083,0.000415,25.5879676,-25.5886414,0.02,0,12.8790474,0,0,0,0,0,0,0,0,0,0,0,0,0.377791405
0.00085,0.000425,26.1397649,-26.1402868,0.04,0,13.2526903,0,0,0,0,0,0,0,0,0,0,0,0,0.373642921
0.00087,0.000435,26.6900492,-26.6900153,0.02,0,14.0393946,0,0,0,0,0,0,0,0,0,0,0,0,0.786704302
0.00089,0.000445,27.2387142,-27.239359,0.02,0,14.4384005,0,0,0,0,0,0,0,0,0,0,0,0,0.39900589
0.00091,0.000455,27.7858193,-27.7864858,0.02,0,14.855886,0,0,0,0,0,0,0,0,0,0,0,0,0.417485476
0.00093,0.000465,28.331121,-28.3318106,0.02,0,15.4911325,0,0,0,0,0,0,0,0,0,0,0,0,0.635246515
0.00095,0.000475,28.8752712,-28.8759182,0.02,0,16.0901673,0,0,0,0,0,0,0,0,0,0,0,0,0.599034786
0.00097,0.000485,29.4179654,-29.4186431,0.04,0,16.6449885,0,0,0,0,0,0,0,0,0,0,0,0,0.554821253
0.00101,0.000505,30.4918552,-30.4976806,0.04,0,17.2921906,0,0,0,0,0,0,0,0,0,0,0,0,0.647202015
0.00105,0.000525,31.5668645,-31.5652111,0.04,0,17.9877143,0,0,0,0,0,0,0,0,0,0,0,0,0.695523739
0.00109,0.000545,33.026871,-33.0364298,0.04,1,19.4971602,0,0,0,0,0,0,0,0,0,0,0,0,1.50944591
0.00111,0.000555,33.1673956,-33.1684784,0.02,0,21.7736354,0,0,0,0,0,0,0,0,0,0,0,0,2.27647519
0.00113,0.000565,33.6997741,-33.7006087,0.02,0,22.6857314,0,0,0,0,0,0,0,0,0,0,0,0,0.912096024
0.00114,0.00057,33.9659492,-33.9746706,0.01,0,23.7734525,0,0,0,0,0,0,0,0,0,0,0,0,1.08772111
0.00115,0.000575,34.231236,-34.2410937,0.01,0,24.1357033,0,0,0,0,0,0,0,0,0,0,0,0,0.362250805
0.00116,0.00058,34.4963337,-34.5067762,0.01,0,24.4570191,0,0,0,0,0,0,0,0,0,0,0,0,0.321315765
0.00117,0.000585,34.7624532,-34.772141,0.01,0,24.7829819,0,0,0,0,0,0,0,0,0,0,0,0,0.325962782
0.00118,0.00059,35.0273725,-35.0374681,0.01,0,25.224406,0,0,0,0,0,0,0,0,0,0,0,0,0.441424131
0.00119,0.000595,35.2921697,-35.3023919,0.02,0,25.5619586,0,0,0,0,0,0,0,0,0,0,0,0,0.337552547
0.00121,0.000605,35.821958,-35.8219334,0.02,0,26.1136796,0,0,0,0,0,0,0,0,0,0,0,0,0.551721096
0.00123,0.000615,36.3488656,-36.3497609,0.02,0,26.6770844,0,0,0,0,0,0,0,0,0,0,0,0,0.563404799
0.00125,0.000625,36.8754759,-36.8759616,0.02,0,27.2566981,0,0,0,0,0,0,0,0,0,0,0,0,0.579613686
0.00127,0.000635,37.4002882,-37.4012514,0.02,0,27.9356539,0,0,0,0,0,0,0,0,0,0,0,0,0.678955793
0.00129,0.000645,37.924363,-37.9251668,0.02,0,28.689106,0,0,0,0,0,0,0,0,0,0,0,0,0.753452063
0.00131,0.000655,38.4476551,-38.4482876,0.04,0,29.343225,0,0,0,0,0,0,0,0,0,0,0,0,0.654119015
0.00135,0.000675,39.4881453,-39.4852102,0.04,0,30.3272369,0,0,0,0,0,0,0,0,0,0,0,0,0.984011889
0.00136,0.00068,39.7452203,-39.7556261,0.01,0,31.9562511,0,0,0,0,0,0,0,0,0,0,0,0,1.62901425
0.00137,0.000685,40.0056355,-40.0168557,0.01,0,32.2931724,0,0,0,0,0,0,0,0,0,0,0,0,0.336921215
0.00138,0.00069,40.2647428,-40.2766446,0.01,0,32.6266305,0,0,0,0,0,0,0,0,0,0,0,0,0.333458185
0.00139,0.000695,40.5252444,-40.5370854,0.01,0,33.007376,0,0,0,0,0,0,0,0,0,0,0,0,0.380745411
0.0014,0.0007,40.784415,-40.7965892,0.01,0,33.345264,0,0,0,0,0,0,0,0,0,0,0,0,0.337888002
0.00141,0.000705,41.0445226,-41.0565694,0.02,0,33.6641989,0,0,0,0,0,0,0,0,0,0,0,0,0.318934917
0.00143,0.000715,41.5646107,-41.5653106,0.02,0,34.2341437,0,0,0,0,0,0,0,0,0,0,0,0,0.569944859
0.00145,0.000725,42.0817372,-42.0824858,0.02,0,34.842345,0,0,0,0,0,0,0,0,0,0,0,0,0.608201265
0.00147,0.000735,42.5979214,-42.5985879,0.02,0,35.3993604,0,0,0,0,0,0,0,0,0,0,0,0,0.557015419
0.00149,0.000745,43.1133304,-43.1140295,0.02,0,36.0016434,0,0,0,0,0,0,0,0,0,0,0,0,0.602283001
0.00151,0.000755,43.6277621,-43.6283376,0.02,0,36.5552697,0,0,0,0,0,0,0,0,0,0,0,0,0.553626299
0.00153,0.000765,44.1413758,-44.142086,0.04,0,37.2069392,0,0,0,0,0,0,0,0,0,0,0,0,0.651669502
0.00157,0.000785,45.2430982,-45.3149384,0.04,1,38.5689158,0,0,0,0,0,0,0,0,0,0,0,0,1.36197662
0.00158,0.00079,45.415815,-45.4308325,0.01,0,40.2329612,0,0,0,0,0,0,0,0,0,0,0,0,1.66404533
0.00159,0.000795,45.6726224,-45.6872777,0.01,0,40.6381474,0,0,0,0,0,0,0,0,0,0,0,0,0.405186176
0.0016,0.0008,45.9286219,-45.9423369,0.01,0,40.9676569,0,0,0,0,0,0,0,0,0,0,0,0,0.329509497
0.00161,0.000805,46.1836557,-46.1972349,0.01,0,41.3354418,0,0,0,0,0,0,0,0,0,0,0,0,0.367784977
0.00162,0.00081,46.439758,-46.4529045,0.01,0,41.7772286,0,0,0,0,0,0,0,0,0,0,0,0,0.441786766
0.00163,0.000815,46.6947405,-46.7079076,0.02,0,42.1770816,0,0,0,0,0,0,0,0,0,0,0,0,0.399852991
0.00165,0.000825,47.2071872,-47.2072486,0.02,0,42.5590711,0,0,0,0,0,0,0,0,0,0,0,0,0.381989479
0.00167,0.000835,47.7158305,-47.7164444,0.02,0,42.9959855,0,0,0,0,0,0,0,0,0,0,0,0,0.436914444
0.00169,0.000845,48.2238162,-48.2246121,0.02,0,43.5656047,0,0,0,0,0,0,0,0,0,0,0,0,0.569619179
0.00171,0.000855,48.7312185,-48.7320783,0.02,0,44.1378009,0,0,0,0,0,0,0,0,0,0,0,0,0.572196245
0.00173,0.000865,49.5093154,-49.5203511,0.02,1,45.2280796,0,0,0,0,0,0,0,0,0,0,0,0,1.09027863
0.001735,0.0008675,49.3591402,-49.3757205,0.005,0,47.0775132,0,0,0,0,0,0,0,0,0,0,0,0,1.84943366
0.00174,0.00087,49.4925831,-49.5077989,0.005,0,47.3633387,0,0,0,0,0,0,0,0,0,0,0,0,0.285825491
0.001745,0.0008725,49.6203094,-49.6260589,0.005,0,47.6482482,0,0,0,0,0,0,0,0,0,0,0,0,0.284909487
0.00175,0.000875,49.7489298,-49.7591122,0.005,0,47.9350772,0,0,0,0,0,0,0,0,0,0,0,0,0.286828995
0.001755,0.0008775,49.877275,-49.8874647,0.005,0,48.2159948,0,0,0,0,0,0,0,0,0,0,0,0,0.280917645
0.00176,0.00088,50.0059148,-50.0162691,0.01,0,48.509047,0,0,0,0,0,0,0,0,0,0,0,0,0.293052197
0.00177,0.000885,50.2640816,-50.2775118,0.01,0,48.8694451,0,0,0,0,0,0,0,0,0,0,0,0,0.360398054
0.00178,0.00089,50.5195531,-50.5333228,0.01,0,49.2098691,0,0,0,0,0,0,0,0,0,0,0,0,0.340424061
0.00179,0.000895,50.775125,-50.7884927,0.01,0,49.5521934,0,0,0,0,0,0,0,0,0,0,0,0,0.342324257
0.0018,0.0009,51.030423,-51.0425831,0.01,0,49.8977702,0,0,0,0,0,0,0,0,0,0,0,0,0.345576763
0.00181,0.000905,51.2871067,-51.3005658,0.01,0,50.2324622,0,0,0,0,0,0,0,0,0,0,0,0,0.334692001
0.00182,0.00091,51.5422378,-51.556185,0.02,0,50.5654278,0,0,0,0,0,0,0,0,0,0,0,0,0.332965612
0.00184,0.00092,52.0553303,-52.0551698,0.02,0,51.1124015,0,0,0,0,0,0,0,0,0,0,0,0,0.546973705
0.00186,0.00093,52.5645062,-52.5650478,0.02,0,51.6113567,0,0,0,0,0,0,0,0,0,0,0,0,0.49895525
0.00187,0.000935,52.8170531,-52.8298273,0.01,0,52.5076184,0,0,0,0,0,0,0,0,0,0,0,0,0.896261692
0.00188,0.00094,53.0717714,-53.0852567,0.01,0,52.7332113,0,0,0,0,0,0,0,0,0,0,0,0,0.225592852
0.00189,0.000945,53.3252979,-53.3385008,0.01,0,52.9930899,0,0,0,0,0,0,0,0,0,0,0,0,0.259878635
0.0019,0.00095,53.5791031,-53.5931792,0.01,0,53.3260682,0,0,0,0,0,0,0,0,0,0,0,0,0.332978249
0.00191,0.000955,53.8315907,-53.8434564,0.01,0,53.6568365,0,0,0,0,0,0,0,0,0,0,0,0,0.330768347
0.00192,0.00096,54.0872862,-54.1016775,0.02,0,53.9867477,0,0,0,0,0,0,0,0,0,0,0,0,0.329911232
0.00193,0.000965,54.3387201,-54.3524239,0.01,0,55.1032536,0,0,0,0,0,0,0,0,0,0,0,0,1.11650586
0.00194,0.00097,54.5944633,-54.6088599,0.01,0,55.4376347,0,0,0,0,0,0,0,0,0,0,0,0,0.334381104
0.00195,0.000975,54.8469313,-54.8611512,0.01,0,55.7867022,0,0,0,0,0,0,0,0,0,0,0,0,0.34906745
0.00196,0.00098,55.1003535,-55.1150335,0.01,0,56.1314111,0,0,0,0,0,0,0,0,0,0,0,0,0.34470892
0.00197,0.000985,55.3535743,-55.3687412,0.01,0,56.4701962,0,0,0,0,0,0,0,0,0,0,0,0,0.338785172
0.00198,0.00099,55.6064151,-55.6208662,0.02,0,56.8071766,0,0,0,0,0,0,0,0,0,0,0,0,0.336980343
0.00199,0.000995,55.8579492,-55.8731121,0.01,0,57.9830685,0,0,0,0,0,0,0,0,0,0,0,0,1.17589188
0.002,0.001,56.1119509,-56.1264023,0.01,0,58.3446867,0,0,0,0,0,0,0,0,0,0,0,0,0.36161828
0.00201,0.001005,56.3639855,-56.3785353,0.01,0,58.677772,0,0,0,0,0,0,0,0,0,0,0,0,0.333085299
0.00202,0.00101,56.6167099,-56.6321763,0.01,0,59.005971,0,0,0,0,0,0,0,0,0,0,0,0,0.32819891
0.00203,0.001015,56.8686791,-56.8833946,0.01,0,59.3553517,0,0,0,0,0,0,0,0,0,0,0,0,0.349380732
0.00204,0.00102,57.1207745,-57.1358638,0.02,0,59.7463479,0,0,0,0,0,0,0,0,0,0,0,0,0.390996218
0.00205,0.001025,57.3715816,-57.3874384,0.01,0,60.5271912,0,0,0,0,0,0,0,0,0,0,0,0,0.780843258
0.00206,0.00103,57.6246412,-57.638941,0.01,0,60.7532618,0,0,0,0,0,0,0,0,0,0,0,0,0.226070642
0.00207,0.001035,57.8765338,-57.8919607,0.01,0,60.9743497,0,0,0,0,0,0,0,0,0,0,0,0,0.221087933
0.00208,0.00104,58.1279563,-58.1431865,0.01,0,61.2026794,0,0,0,0,0,0,0,0,0,0,0,0,0.228329659
0.00209,0.001045,58.3794229,-58.3949479,0.01,0,61.42431,0,0,0,0,0,0,0,0,0,0,0,0,0.221630573
0.0021,0.00105,58.6304846,-58.6461648,0.02,0,61.6490524,0,0,0,0,0,0,0,0,0,0,0,0,0.224742413
0.00211,0.001055,58.8802954,-58.8963397,0.01,0,62.3883839,0,0,0,0,0,0,0,0,0,0,0,0,0.739331484
0.00212,0.00106,59.1328776,-59.1481387,0.01,0,62.6011662,0,0,0,0,0,0,0,0,0,0,0,0,0.212782383
0.00213,0.001065,59.3834467,-59.3991514,0.01,0,62.8151021,0,0,0,0,0,0,0,0,0,0,0,0,0.213935852
0.002135,0.0010675,59.5070748,-59.5265409,0.005,0,63.3255599,0,0,0,0,0,0,0,0,0,0,0,0,0.510457754
0.00214,0.00107,59.6344108,-59.6510209,0.005,0,63.5100718,0,0,0,0,0,0,0,0,0,0,0,0,0.1845119
0.002145,0.0010725,59.759143,-59.7656464,0.005,0,63.7507777,0,0,0,0,0,0,0,0,0,0,0,0,0.240705967
0.00215,0.001075,59.8854869,-59.9018472,0.005,0,64.0488389,0,0,0,0,0,0,0,0,0,0,0,0,0.298061132
0.002155,0.0010775,60.0102619,-60.0165079,0.005,0,64.3270488,0,0,0,0,0,0,0,0,0,0,0,0,0.278209925
0.00216,0.00108,60.1366065,-60.1528365,0.01,0,64.6040299,0,0,0,0,0,0,0,0,0,0,0,0,0.276981115
0.002165,0.0010825,60.2641895,-60.2762712,0.005,0,65.1587536,0,0,0,0,0,0,0,0,0,0,0,0,0.55472374
0.00217,0.001085,60.3868099,-60.4066672,0.005,0,65.3463624,0,0,0,0,0,0,0,0,0,0,0,0,0.187608719
0.002175,0.0010875,60.5121657,-60.5185903,0.005,0,65.6148877,0,0,0,0,0,0,0,0,0,0,0,0,0.268525362
0.00218,0.00109,60.6378017,-60.6548461,0.005,0,65.8073878,0,0,0,0,0,0,0,0,0,0,0,0,0.192500114
0.002185,0.0010925,60.7655649,-60.7777957,0.005,0,66.0736716,0,0,0,0,0,0,0,0,0,0,0,0,0.266283751
0.00219,0.001095,60.8878427,-60.9079446,0.01,0,66.3411295,0,0,0,0,0,0,0,0,0,0,0,0,0.267457962
0.002195,0.0010975,61.0129416,-61.0194247,0.005,0,66.87063,0,0,0,0,0,0,0,0,0,0,0,0,0.529500484
0.0022,0.0011,61.1410502,-61.151221,0.005,0,67.0591893,0,0,0,0,0,0,0,0,0,0,0,0,0.188559294
0.002205,0.0011025,61.2629594,-61.2824586,0.005,0,67.2449594,0,0,0,0,0,0,0,0,0,0,0,0,0.185770035
0.00221,0.001105,61.38917,-61.3985231,0.005,0,67.4954271,0,0,0,0,0,0,0,0,0,0,0,0,0.250467777
0.002215,0.0011075,61.5137049,-61.5271705,0.005,0,67.7769308,0,0,0,0,0,0,0,0,0,0,0,0,0.281503677
0.00222,0.00111,61.63799,-61.6497762,0.01,0,68.059504,0,0,0,0,0,0,0,0,0,0,0,0,0.282573223
0.002225,0.0011125,61.763036,-61.7747442,0.005,0,68.7808073,0,0,0,0,0,0,0,0,0,0,0,0,0.721303225
0.00223,0.001115,61.8881552,-61.9017632,0.005,0,68.9694378,0,0,0,0,0,0,0,0,0,0,0,0,0.188630581
0.002235,0.0011175,62.0123738,-62.0242438,0.005,0,69.1545982,0,0,0,0,0,0,0,0,0,0,0,0,0.185160398
0.00224,0.00112,62.1378055,-62.1514044,0.005,0,69.3425868,0,0,0,0,0,0,0,0,0,0,0,0,0.18798852
0.002245,0.0011225,62.2626909,-62.2766814,0.005,0,69.534827,0,0,0,0,0,0,0,0,0,0,0,0,0.192240238
0.00225,0.001125,62.3870735,-62.4012474,0.01,0,69.7201359,0,0,0,0,0,0,0,0,0,0,0,0,0.185308933
0.002255,0.0011275,62.5120866,-62.5259331,0.005,0,70.2329466,0,0,0,0,0,0,0,0,0,0,0,0,0.512810707
0.00226,0.00113,62.6370698,-62.6510844,0.005,0,70.6172643,0,0,0,0,0,0,0,0,0,0,0,0,0.384317636
0.002265,0.0011325,62.7616349,-62.7756776,0.005,0,71.0381999,0,0,0,0,0,0,0,0,0,0,0,0,0.420935631
0.00227,0.001135,62.8858369,-62.9000177,0.005,0,71.4722698,0,0,0,0,0,0,0,0,0,0,0,0,0.434069872
0.002275,0.0011375,63.0107467,-63.0247701,0.005,0,71.7618508,0,0,0,0,0,0,0,0,0,0,0,0,0.28958106
0.00228,0.00114,63.1353974,-63.1494434,0.01,0,72.0882349,0,0,0,0,0,0,0,0,0,0,0,0,0.326384068
0.002285,0.0011425,63.2600582,-63.274149,0.005,0,73.1064081,0,0,0,0,0,0,0,0,0,0,0,0,1.01817322
0.00229,0.001145,63.3840892,-63.3982683,0.005,0,73.5372803,0,0,0,0,0,0,0,0,0,0,0,0,0.430872202
0.002295,0.0011475,63.5088594,-63.5228397,0.005,0,74.1224623,0,0,0,0,0,0,0,0,0,0,0,0,0.585181952
0.0023,0.00115,63.6335039,-63.6476261,0.005,0,74.5167263,0,0,0,0,0,0,0,0,0,0,0,0,0.394263983
0.002305,0.0011525,63.7579013,-63.7720385,0.005,0,74.9177783,0,0,0,0,0,0,0,0,0,0,0,0,0.401051998
0.00231,0.001155,63.8818022,-63.896078,0.01,0,75.5431774,0,0,0,0,0,0,0,0,0,0,0,0,0.625399113
0.002315,0.0011575,64.0064838,-64.0204824,0.005,0,76.3959179,0,0,0,0,0,0,0,0,0,0,0,0,0.852740526
0.00232,0.00116,64.1308486,-64.1448954,0.005,0,76.5993974,0,0,0,0,0,0,0,0,0,0,0,0,0.203479528
0.002325,0.0011625,64.2552814,-64.2694798,0.005,0,76.8744876,0,0,0,0,0,0,0,0,0,0,0,0,0.275090218
0.00233,0.001165,64.3790802,-64.3934707,0.005,0,77.0728014,0,0,0,0,0,0,0,0,0,0,0,0,0.198313713
0.002335,0.0011675,64.5036525,-64.5176996,0.005,0,77.4614146,0,0,0,0,0,0,0,0,0,0,0,0,0.388613224
0.00234,0.00117,64.627904,-64.6419919,0.01,0,77.8091035,0,0,0,0,0,0,0,0,0,0,0,0,0.347688913
0.002345,0.0011725,64.7522244,-64.7664625,0.005,0,78.5388153,0,0,0,0,0,0,0,0,0,0,0,0,0.729711771
0.00235,0.001175,64.8759467,-64.8902578,0.005,0,78.7291224,0,0,0,0,0,0,0,0,0,0,0,0,0.19030714
0.002355,0.0011775,65.0003592,-65.0144676,0.005,0,79.251328,0,0,0,0,0,0,0,0,0,0,0,0,0.522205591
0.00236,0.00118,65.1246737,-65.1389189,0.005,0,79.5738654,0,0,0,0,0,0,0,0,0,0,0,0,0.322537422
0.002365,0.0011825,65.2487228,-65.2629797,0.005,0,80.2732465,0,0,0,0,0,0,0,0,0,0,0,0,0.699381113
0.00237,0.001185,65.3723525,-65.3867422,0.01,0,80.8195336,0,0,0,0,0,0,0,0,0,0,0,0,0.54628706
0.002375,0.0011875,65.4966172,-65.5107417,0.005,0,81.9548337,0,0,0,0,0,0,0,0,0,0,0,0,1.13530016
0.00238,0.00119,65.620758,-65.6349456,0.005,0,82.2123158,0,0,0,0,0,0,0,0,0,0,0,0,0.257482052
0.002385,0.0011925,65.7447529,-65.7590479,0.005,0,82.4909451,0,0,0,0,0,0,0,0,0,0,0,0,0.278629303
0.00239,0.001195,65.8682641,-65.8826955,0.005,0,82.7575934,0,0,0,0,0,0,0,0,0,0,0,0,0.266648293
0.002395,0.0011975,65.9924387,-66.0065968,0.005,0,83.015132,0,0,0,0,0,0,0,0,0,0,0,0,0.257538557
0.0024,0.0012,66.1164792,-66.130702,0.01,0,83.3610163,0,0,0,0,0,0,0,0,0,0,0,0,0.345884323
0.002405,0.0012025,66.2403667,-66.2546988,0.005,0,84.3612499,0,0,0,0,0,0,0,0,0,0,0,0,1.00023365
0.00241,0.001205,66.3637691,-66.3782408,0.005,0,84.6822772,0,0,0,0,0,0,0,0,0,0,0,0,0.321027279
0.002415,0.0012075,66.4878395,-66.5020352,0.005,0,85.1637218,0,0,0,0,0,0,0,0,0,0,0,0,0.481444597
0.00242,0.00121,66.6117756,-66.6260353,0.005,0,85.5989335,0,0,0,0,0,0,0,0,0,0,0,0,0.435211658
0.002425,0.0012125,66.7355556,-66.7499232,0.005,0,85.8523471,0,0,0,0,0,0,0,0,0,0,0,0,0.253413677
0.00243,0.001215,66.8588512,-66.8733615,0.01,0,86.0602016,0,0,0,0,0,0,0,0,0,0,0,0,0.207854509
0.002435,0.0012175,66.9822933,-66.9943148,0.005,0,86.7569311,0,0,0,0,0,0,0,0,0,0,0,0,0.696729422
0.00244,0.00122,67.1071446,-67.128638,0.005,0,87.0093427,0,0,0,0,0,0,0,0,0,0,0,0,0.252411604
0.002445,0.0012225,67.2291602,-67.2363334,0.005,0,87.2352149,0,0,0,0,0,0,0,0,0,0,0,0,0.225872278
0.00245,0.001225,67.3539917,-67.3712989,0.005,0,87.4279001,0,0,0,0,0,0,0,0,0,0,0,0,0.192685127
0.002455,0.0012275,67.4762854,-67.4830038,0.005,0,87.9783931,0,0,0,0,0,0,0,0,0,0,0,0,0.550493002
0.00246,0.00123,67.6009875,-67.6181031,0.01,0,88.4172359,0,0,0,0,0,0,0,0,0,0,0,0,0.438842773
0.002465,0.0012325,67.7233257,-67.7299322,0.005,0,89.7468047,0,0,0,0,0,0,0,0,0,0,0,0,1.32956886
0.00247,0.001235,67.8479378,-67.8651483,0.005,0,89.9538517,0,0,0,0,0,0,0,0,0,0,0,0,0.207046986
0.002475,0.0012375,67.9705104,-67.9771033,0.005,0,90.1517708,0,0,0,0,0,0,0,0,0,0,0,0,0.19791913
0.00248,0.00124,68.0950341,-68.1122174,0.005,0,90.3607709,0,0,0,0,0,0,0,0,0,0,0,0,0.209000111
0.002485,0.0012425,68.2173099,-68.2239432,0.005,0,90.552722,0,0,0,0,0,0,0,0,0,0,0,0,0.191951036
0.00249,0.001245,68.3418291,-68.3590278,0.01,0,90.7703383,0,0,0,0,0,0,0,0,0,0,0,0,0.21761632
0.002495,0.0012475,68.4640698,-68.4707026,0.005,0,91.5726378,0,0,0,0,0,0,0,0,0,0,0,0,0.8022995
0.0025,0.00125,68.5885217,-68.6057596,0.005,0,91.856884,0,0,0,0,0,0,0,0,0,0,0,0,0.284246206
0.002505,0.0012525,68.7109396,-68.7175676,0.005,0,92.1401002,0,0,0,0,0,0,0,0,0,0,0,0,0.283216238
0.00251,0.001255,68.8353445,-68.8525601,0.005,0,92.4239991,0,0,0,0,0,0,0,0,0,0,0,0,0.28389883
0.002515,0.0012575,68.9574115,-68.9640962,0.005,0,92.7057023,0,0,0,0,0,0,0,0,0,0,0,0,0.281703234
0.00252,0.00126,69.0819222,-69.0991109,0.01,0,92.9910941,0,0,0,0,0,0,0,0,0,0,0,0,0.285391808
0.002525,0.0012625,69.2040822,-69.2107473,0.005,0,93.7210295,0,0,0,0,0,0,0,0,0,0,0,0,0.729935408
0.00253,0.001265,69.3282616,-69.3455708,0.005,0,94.0041249,0,0,0,0,0,0,0,0,0,0,0,0,0.28309536
0.002535,0.0012675,69.4504957,-69.457169,0.005,0,94.289326,0,0,0,0,0,0,0,0,0,0,0,0,0.285201073
0.00254,0.00127,69.5746991,-69.5919972,0.005,0,94.4888804,0,0,0,0,0,0,0,0,0,0,0,0,0.199554443
0.002545,0.0012725,69.6967547,-69.7034609,0.005,0,94.6751752,0,0,0,0,0,0,0,0,0,0,0,0,0.186294794
0.00255,0.001275,69.8209883,-69.8382832,0.01,0,94.8599813,0,0,0,0,0,0,0,0,0,0,0,0,0.184806108
0.002555,0.0012775,69.9430639,-69.9497681,0.005,0,95.390902,0,0,0,0,0,0,0,0,0,0,0,0,0.530920744
0.00256,0.00128,70.0671105,-70.0844773,0.005,0,95.5892327,0,0,0,0,0,0,0,0,0,0,0,0,0.198330641
0.002565,0.0012825,70.189431,-70.1961602,0.005,0,95.8784516,0,0,0,0,0,0,0,0,0,0,0,0,0.289218903
0.00257,0.001285,70.3132381,-70.3307777,0.005,0,96.1707077,0,0,0,0,0,0,0,0,0,0,0,0,0.292256117
0.002575,0.0012875,70.4388513,-70.4516532,0.005,0,96.5493376,0,0,0,0,0,0,0,0,0,0,0,0,0.378629923
0.00258,0.00129,70.5589832,-70.58036,0.01,0,97.0346279,0,0,0,0,0,0,0,0,0,0,0,0,0.485290289
0.002585,0.0012925,70.6853298,-70.6988602,0.005,0,99.076478,0,0,0,0,0,0,0,0,0,0,0,0,2.04185009
0.00259,0.001295,70.8065054,-70.82426,0.005,0,99.8551736,0,0,0,0,0,0,0,0,0,0,0,0,0.778695583
0.002595,0.0012975,70.9295472,-70.9473755,0.005,0,100.394917,0,0,0,0,0,0,0,0,0,0,0,0,0.539742947
0.0026,0.0013,71.0523401,-71.0704914,0.005,0,100.802737,0,0,0,0,0,0,0,0,0,0,0,0,0.407820463
0.002605,0.0013025,71.1755055,-71.1936081,0.005,0,101.035688,0,0,0,0,0,0,0,0,0,0,0,0,0.232951403
0.00261,0.001305,71.298374,-71.3166429,0.01,0,101.393136,0,0,0,0,0,0,0,0,0,0,0,0,0.357447147
0.002615,0.0013075,71.421243,-71.4395002,0.005,0,102.498497,0,0,0,0,0,0,0,0,0,0,0,0,1.10536122
0.00262,0.00131,71.5439683,-71.5623582,0.005,0,102.724272,0,0,0,0,0,0,0,0,0,0,0,0,0.225775003
0.002625,0.0013125,71.6668356,-71.6851696,0.005,0,102.983461,0,0,0,0,0,0,0,0,0,0,0,0,0.25918889
0.00263,0.001315,71.7895767,-71.808019,0.005,0,103.185254,0,0,0,0,0,0,0,0,0,0,0,0,0.201793432
0.002635,0.0013175,71.9123318,-71.9307338,0.005,0,103.527843,0,0,0,0,0,0,0,0,0,0,0,0,0.342588663
0.00264,0.00132,72.0349498,-72.0534648,0.01,0,103.797617,0,0,0,0,0,0,0,0,0,0,0,0,0.26977396
0.002645,0.0013225,72.1577151,-72.1761593,0.005,0,104.767947,0,0,0,0,0,0,0,0,0,0,0,0,0.970330238
0.00265,0.001325,72.2803605,-72.2989026,0.005,0,105.025548,0,0,0,0,0,0,0,0,0,0,0,0,0.257601023
0.002655,0.0013275,72.4030195,-72.4215126,0.005,0,105.331028,0,0,0,0,0,0,0,0,0,0,0,0,0.305480003
0.00266,0.00133,72.5255455,-72.5441461,0.005,0,105.694163,0,0,0,0,0,0,0,0,0,0,0,0,0.363134861
0.002665,0.0013325,72.6482209,-72.6667467,0.005,0,106.08304,0,0,0,0,0,0,0,0,0,0,0,0,0.388876677
0.00267,0.001335,72.7707767,-72.7893942,0.01,0,106.442015,0,0,0,0,0,0,0,0,0,0,0,0,0.358975887
0.002675,0.0013375,72.893347,-72.9119142,0.005,0,107.247416,0,0,0,0,0,0,0,0,0,0,0,0,0.80540061
0.00268,0.00134,73.0157839,-73.0344541,0.005,0,107.532881,0,0,0,0,0,0,0,0,0,0,0,0,0.285464764
0.002685,0.0013425,73.1383707,-73.1569617,0.005,0,107.726763,0,0,0,0,0,0,0,0,0,0,0,0,0.19388175
0.00269,0.001345,73.2608383,-73.2795219,0.005,0,107.919123,0,0,0,0,0,0,0,0,0,0,0,0,0.192360163
0.002695,0.0013475,73.38332,-73.40195,0.005,0,108.124999,0,0,0,0,0,0,0,0,0,0,0,0,0.205875874
0.0027,0.00135,73.5056462,-73.5243998,0.01,0,108.321079,0,0,0,0,0,0,0,0,0,0,0,0,0.196080685
0.002705,0.0013525,73.6281655,-73.6468123,0.005,0,108.977638,0,0,0,0,0,0,0,0,0,0,0,0,0.656558514
0.00271,0.001355,73.7503864,-73.7691667,0.005,0,109.255188,0,0,0,0,0,0,0,0,0,0,0,0,0.277550459
0.002715,0.0013575,73.8729329,-73.8916032,0.005,0,109.493915,0,0,0,0,0,0,0,0,0,0,0,0,0.238727093
0.00272,0.00136,73.9952887,-74.0140576,0.005,0,109.668061,0,0,0,0,0,0,0,0,0,0,0,0,0.174145222
0.002725,0.0013625,74.1176424,-74.1363581,0.005,0,109.866571,0,0,0,0,0,0,0,0,0,0,0,0,0.198510647
0.00273,0.001365,74.2398386,-74.258681,0.01,0,110.140777,0,0,0,0,0,0,0,0,0,0,0,0,0.274205923
0.002735,0.0013675,74.362232,-74.3809643,0.005,0,110.781897,0,0,0,0,0,0,0,0,0,0,0,0,0.641120195
0.00274,0.00137,74.4844876,-74.503315,0.005,0,111.055361,0,0,0,0,0,0,0,0,0,0,0,0,0.273463726
0.002745,0.0013725,74.6067554,-74.6255274,0.005,0,111.324327,0,0,0,0,0,0,0,0,0,0,0,0,0.268966436
0.00275,0.001375,74.7288692,-74.7477658,0.005,0,111.60868,0,0,0,0,0,0,0,0,0,0,0,0,0.284352779
0.002755,0.0013775,74.8511774,-74.8699645,0.005,0,112.057179,0,0,0,0,0,0,0,0,0,0,0,0,0.448498726
0.00276,0.00138,74.9733525,-74.9922331,0.01,0,112.263055,0,0,0,0,0,0,0,0,0,0,0,0,0.205876112
0.002765,0.0013825,75.0955363,-75.1143629,0.005,0,113.209807,0,0,0,0,0,0,0,0,0,0,0,0,0.946751595
0.00277,0.001385,75.2175702,-75.2365208,0.005,0,113.893144,0,0,0,0,0,0,0,0,0,0,0,0,0.68333745
0.002775,0.0013875,75.3397927,-75.3586346,0.005,0,114.324986,0,0,0,0,0,0,0,0,0,0,0,0,0.431842327
0.00278,0.00139,75.4602918,-75.4838656,0.005,0,114.673578,0,0,0,0,0,0,0,0,0,0,0,0,0.348591328
0.002785,0.0013925,75.5818139,-75.597831,0.005,0,114.872163,0,0,0,0,0,0,0,0,0,0,0,0,0.198585272
0.00279,0.001395,75.7040568,-75.7173154,0.01,0,115.162856,0,0,0,0,0,0,0,0,0,0,0,0,0.290692568
0.002795,0.0013975,75.82672,-75.8416774,0.005,0,116.06045,0,0,0,0,0,0,0,0,0,0,0,0,0.89759469
0.0028,0.0014,75.9484971,-75.963567,0.005,0,116.338024,0,0,0,0,0,0,0,0,0,0,0,0,0.277573824
0.002805,0.0014025,76.0695805,-76.0827317,0.005,0,116.720722,0,0,0,0,0,0,0,0,0,0,0,0,0.382697821
0.00281,0.001405,76.1921943,-76.2070727,0.005,0,116.998492,0,0,0,0,0,0,0,0,0,0,0,0,0.277770042
0.002815,0.0014075,76.3140826,-76.3287978,0.005,0,117.271716,0,0,0,0,0,0,0,0,0,0,0,0,0.273223639
0.00282,0.00141,76.4360044,-76.4511602,0.01,0,117.542083,0,0,0,0,0,0,0,0,0,0,0,0,0.270367384
0.002825,0.0014125,76.5580772,-76.573051,0.005,0,118.316692,0,0,0,0,0,0,0,0,0,0,0,0,0.774609089
0.00283,0.001415,76.6798647,-76.6949765,0.005,0,118.583265,0,0,0,0,0,0,0,0,0,0,0,0,0.266573191
0.002835,0.0014175,76.8018863,-76.8168665,0.005,0,118.849155,0,0,0,0,0,0,0,0,0,0,0,0,0.265889645
0.00284,0.00142,76.9236305,-76.938741,0.005,0,119.028965,0,0,0,0,0,0,0,0,0,0,0,0,0.17980957
0.002845,0.0014225,77.0456033,-77.060591,0.005,0,119.206712,0,0,0,0,0,0,0,0,0,0,0,0,0.177747726
0.00285,0.001425,77.1673082,-77.1824245,0.01,0,119.391397,0,0,0,0,0,0,0,0,0,0,0,0,0.18468523
0.00286,0.00143,77.7772087,-77.6555334,0.01,1,119.841219,0,0,0,0,0,0,0,0,0,0,0,0,0.449821472
0.002865,0.0014325,77.5228871,-77.539863,0.005,0,120.524211,0,0,0,0,0,0,0,0,0,0,0,0,0.68299222
0.00287,0.001435,77.6525308,-77.6752593,0.005,0,120.708356,0,0,0,0,0,0,0,0,0,0,0,0,0.184144974
0.002875,0.0014375,77.7760078,-77.7912489,0.005,0,120.895721,0,0,0,0,0,0,0,0,0,0,0,0,0.187365055
0.00288,0.00144,77.8965259,-77.9151025,0.005,0,121.084841,0,0,0,0,0,0,0,0,0,0,0,0,0.189120054
0.002885,0.0014425,78.0178105,-78.0404578,0.005,0,121.275769,0,0,0,0,0,0,0,0,0,0,0,0,0.190927982
0.00289,0.001445,78.1399343,-78.1640809,0.01,0,121.466683,0,0,0,0,0,0,0,0,0,0,0,0,0.190914154
0.002895,0.0014475,78.2620383,-78.2865647,0.005,0,122.001241,0,0,0,0,0,0,0,0,0,0,0,0,0.534557581
0.0029,0.00145,78.3842319,-78.4091408,0.005,0,122.47193,0,0,0,0,0,0,0,0,0,0,0,0,0.47068882
0.002905,0.0014525,78.5061977,-78.5311996,0.005,0,122.830735,0,0,0,0,0,0,0,0,0,0,0,0,0.358804941
0.00291,0.001455,78.6282594,-78.6535083,0.005,0,123.0654,0,0,0,0,0,0,0,0,0,0,0,0,0.234665155
0.002915,0.0014575,78.7533546,-78.7689711,0.005,0,123.33093,0,0,0,0,0,0,0,0,0,0,0,0,0.265529871
0.00292,0.00146,78.8721071,-78.8955508,0.01,0,123.529836,0,0,0,0,0,0,0,0,0,0,0,0,0.19890666
0.00293,0.001465,79.4985556,-79.3669546,0.01,1,124.217039,0,0,0,0,0,0,0,0,0,0,0,0,0.687202692
0.002935,0.0014675,79.2258375,-79.2439046,0.005,0,125.147817,0,0,0,0,0,0,0,0,0,0,0,0,0.930778265
0.00294,0.00147,79.3567579,-79.3774325,0.005,0,125.358459,0,0,0,0,0,0,0,0,0,0,0,0,0.210642099
0.002945,0.0014725,79.4789626,-79.4982725,0.005,0,125.664788,0,0,0,0,0,0,0,0,0,0,0,0,0.306328058
0.00295,0.001475,79.6001253,-79.6234907,0.005,0,125.883856,0,0,0,0,0,0,0,0,0,0,0,0,0.21906805
0.002955,0.0014775,79.7222317,-79.7463424,0.005,0,126.135608,0,0,0,0,0,0,0,0,0,0,0,0,0.251752138
0.00296,0.00148,79.8442885,-79.8691863,0.01,0,126.343886,0,0,0,0,0,0,0,0,0,0,0,0,0.208278179
0.00297,0.001485,80.4763512,-80.3447523,0.01,1,127.063504,0,0,0,0,0,0,0,0,0,0,0,0,0.719617605
0.002975,0.0014875,80.1975374,-80.2164502,0.005,0,128.601399,0,0,0,0,0,0,0,0,0,0,0,0,1.53789568
0.00298,0.00149,80.3291445,-80.3494572,0.005,0,128.896432,0,0,0,0,0,0,0,0,0,0,0,0,0.295032501
0.002985,0.0014925,80.4514201,-80.4705708,0.005,0,129.358433,0,0,0,0,0,0,0,0,0,0,0,0,0.462001324
0.00299,0.001495,80.5724379,-80.5956832,0.005,0,130.138487,0,0,0,0,0,0,0,0,0,0,0,0,0.780053854
0.002995,0.0014975,80.6946427,-80.7188377,0.005,0,130.634415,0,0,0,0,0,0,0,0,0,0,0,0,0.495928288
0.003,0.0015,80.8167842,-80.8415958,0.01,0,130.896986,0,0,0,0,0,0,0,0,0,0,0,0,0.262570858
0.00301,0.001505,81.4513217,-81.3206085,0.01,1,131.685476,0,0,0,0,0,0,0,0,0,0,0,0,0.78848958
0.003015,0.0015075,81.1712653,-81.1903934,0.005,0,132.448866,0,0,0,0,0,0,0,0,0,0,0,0,0.763390779
0.00302,0.00151,81.3023398,-81.3255033,0.005,0,132.901408,0,0,0,0,0,0,0,0,0,0,0,0,0.452541351
0.003025,0.0015125,81.4235618,-81.4443534,0.005,0,133.171676,0,0,0,0,0,0,0,0,0,0,0,0,0.270267963
0.00303,0.001515,81.5446252,-81.5687129,0.005,0,133.435613,0,0,0,0,0,0,0,0,0,0,0,0,0.263937473
0.003035,0.0015175,81.666692,-81.6913163,0.005,0,133.784352,0,0,0,0,0,0,0,0,0,0,0,0,0.348738432
0.00304,0.00152,81.7886871,-81.8138465,0.01,0,134.060701,0,0,0,0,0,0,0,0,0,0,0,0,0.276349306
0.00305,0.001525,82.4259291,-82.2957131,0.01,1,135.017179,0,0,0,0,0,0,0,0,0,0,0,0,0.95647788
0.003055,0.0015275,82.1540933,-82.1545038,0.005,0,136.178512,0,0,0,0,0,0,0,0,0,0,0,0,1.16133356
0.00306,0.00153,82.2749298,-82.295783,0.005,0,136.485907,0,0,0,0,0,0,0,0,0,0,0,0,0.307394505
0.003065,0.0015325,82.3937984,-82.4182059,0.005,0,136.766586,0,0,0,0,0,0,0,0,0,0,0,0,0.280679464
0.00307,0.001535,82.5166329,-82.5411772,0.005,0,137.042972,0,0,0,0,0,0,0,0,0,0,0,0,0.276385307
0.003075,0.0015375,82.6380237,-82.6631083,0.005,0,137.328407,0,0,0,0,0,0,0,0,0,0,0,0,0.285434961
0.00308,0.00154,82.7601529,-82.7853793,0.01,0,137.611301,0,0,0,0,0,0,0,0,0,0,0,0,0.28289485
0.00309,0.001545,83.3998143,-83.2693939,0.01,1,138.447649,0,0,0,0,0,0,0,0,0,0,0,0,0.836348057
0.003095,0.0015475,83.1252333,-83.1256454,0.005,0,139.434238,0,0,0,0,0,0,0,0,0,0,0,0,0.98658824
0.0031,0.00155,83.2458478,-83.2668373,0.005,0,139.708783,0,0,0,0,0,0,0,0,0,0,0,0,0.274545431
0.003105,0.0015525,83.3646515,-83.3890788,0.005,0,139.992172,0,0,0,0,0,0,0,0,0,0,0,0,0.283388615
0.00311,0.001555,83.487257,-83.5119599,0.005,0,140.262738,0,0,0,0,0,0,0,0,0,0,0,0,0.270566225
0.003115,0.0015575,83.6088598,-83.6339289,0.005,0,140.540694,0,0,0,0,0,0,0,0,0,0,0,0,0.277956247
0.00312,0.00156,83.7306018,-83.7560366,0.01,0,140.820631,0,0,0,0,0,0,0,0,0,0,0,0,0.279936314
0.00313,0.001565,84.3731415,-84.2415027,0.01,1,141.707793,0,0,0,0,0,0,0,0,0,0,0,0,0.887162447
0.003135,0.0015675,84.0953593,-84.0957747,0.005,0,142.713631,0,0,0,0,0,0,0,0,0,0,0,0,1.00583768
0.00314,0.00157,84.215838,-84.2368369,0.005,0,142.892123,0,0,0,0,0,0,0,0,0,0,0,0,0.178492546
0.003145,0.0015725,84.3343456,-84.3589413,0.005,0,143.078456,0,0,0,0,0,0,0,0,0,0,0,0,0.186332941
0.00315,0.001575,84.4568134,-84.481561,0.005,0,143.264152,0,0,0,0,0,0,0,0,0,0,0,0,0.185696125
0.003155,0.0015775,84.5781168,-84.6033682,0.005,0,143.445361,0,0,0,0,0,0,0,0,0,0,0,0,0.181208611
0.00316,0.00158,84.7002104,-84.7256314,0.01,0,143.632839,0,0,0,0,0,0,0,0,0,0,0,0,0.187478065
0.00317,0.001585,85.3452402,-85.2129008,0.01,1,144.347762,0,0,0,0,0,0,0,0,0,0,0,0,0.714922905
0.003175,0.0015875,85.0642795,-85.0647054,0.005,0,145.66108,0,0,0,0,0,0,0,0,0,0,0,0,1.31331825
0.00318,0.00159,85.1847591,-85.2056951,0.005,0,145.946912,0,0,0,0,0,0,0,0,0,0,0,0,0.285831928
0.003185,0.0015925,85.3030964,-85.3278214,0.005,0,146.228398,0,0,0,0,0,0,0,0,0,0,0,0,0.281485558
0.00319,0.001595,85.4252697,-85.4502086,0.005,0,146.497342,0,0,0,0,0,0,0,0,0,0,0,0,0.268944502
0.003195,0.0015975,85.5464828,-85.5718253,0.005,0,146.771578,0,0,0,0,0,0,0,0,0,0,0,0,0.274236202
0.0032,0.0016,85.6682532,-85.6937964,0.01,0,147.041006,0,0,0,0,0,0,0,0,0,0,0,0,0.269427299
0.00321,0.001605,86.3158771,-86.1829056,0.01,1,147.830053,0,0,0,0,0,0,0,0,0,0,0,0,0.789047003
0.003215,0.0016075,86.0321201,-86.0325562,0.005,0,149.280587,0,0,0,0,0,0,0,0,0,0,0,0,1.45053458
0.00322,0.00161,86.1523377,-86.1733808,0.005,0,149.46571,0,0,0,0,0,0,0,0,0,0,0,0,0.185122967
0.003225,0.0016125,86.2706883,-86.2954657,0.005,0,149.651951,0,0,0,0,0,0,0,0,0,0,0,0,0.186240911
0.00323,0.001615,86.3928039,-86.4178292,0.005,0,149.837308,0,0,0,0,0,0,0,0,0,0,0,0,0.185356855
0.003235,0.0016175,86.5137369,-86.5392036,0.005,0,150.019347,0,0,0,0,0,0,0,0,0,0,0,0,0.182039499
0.00324,0.00162,86.635541,-86.6611723,0.01,0,150.196923,0,0,0,0,0,0,0,0,0,0,0,0,0.17757535
0.00325,0.001625,87.2857253,-87.1521358,0.01,1,150.715416,0,0,0,0,0,0,0,0,0,0,0,0,0.518492937
0.003255,0.0016275,86.9989525,-86.9993987,0.005,0,151.730681,0,0,0,0,0,0,0,0,0,0,0,0,1.01526499
0.00326,0.00163,87.1190788,-87.1401458,0.005,0,151.918505,0,0,0,0,0,0,0,0,0,0,0,0,0.187824488
0.003265,0.0016325,87.2372068,-87.2621303,0.005,0,152.100321,0,0,0,0,0,0,0,0,0,0,0,0,0.181815863
0.00327,0.001635,87.3591525,-87.3842486,0.005,0,152.278929,0,0,0,0,0,0,0,0,0,0,0,0,0.178607941
0.003275,0.0016375,87.4800584,-87.5055705,0.005,0,152.459867,0,0,0,0,0,0,0,0,0,0,0,0,0.180937767
0.00328,0.00164,87.6017758,-87.6275181,0.01,0,152.682051,0,0,0,0,0,0,0,0,0,0,0,0,0.222183943
0.00329,0.001645,88.2544661,-88.1202435,0.01,1,153.228195,0,0,0,0,0,0,0,0,0,0,0,0,0.546144247
0.003295,0.0016475,87.9647601,-87.9652086,0.005,0,154.134713,0,0,0,0,0,0,0,0,0,0,0,0,0.906518459
0.0033,0.00165,88.0847586,-88.1058708,0.005,0,154.401088,0,0,0,0,0,0,0,0,0,0,0,0,0.266375065
0.003305,0.0016525,88.2027728,-88.2277441,0.005,0,154.616023,0,0,0,0,0,0,0,0,0,0,0,0,0.214934349
0.00331,0.001655,88.3245723,-88.349773,0.005,0,154.92918,0,0,0,0,0,0,0,0,0,0,0,0,0.313157558
0.003315,0.0016575,88.4453516,-88.4709732,0.005,0,155.239208,0,0,0,0,0,0,0,0,0,0,0,0,0.310027838
0.00332,0.00166,88.5669586,-88.5928098,0.01,0,155.512076,0,0,0,0,0,0,0,0,0,0,0,0,0.272868156
0.00333,0.001665,89.222267,-89.0874778,0.01,1,156.122678,0,0,0,0,0,0,0,0,0,0,0,0,0.610601187
0.003335,0.0016675,88.9295936,-88.9300468,0.005,0,157.414392,0,0,0,0,0,0,0,0,0,0,0,0,1.29171419
0.00334,0.00167,89.0494784,-89.0706242,0.005,0,157.675234,0,0,0,0,0,0,0,0,0,0,0,0,0.260842323
0.003345,0.0016725,89.1671638,-89.1922927,0.005,0,157.871411,0,0,0,0,0,0,0,0,0,0,0,0,0.196177006
0.00335,0.001675,89.2891347,-89.3143692,0.005,0,158.07248,0,0,0,0,0,0,0,0,0,0,0,0,0.201069355
0.003355,0.0016775,89.409696,-89.4354018,0.005,0,158.411491,0,0,0,0,0,0,0,0,0,0,0,0,0.339010477
0.00336,0.00168,89.5310219,-89.5569347,0.01,0,158.655085,0,0,0,0,0,0,0,0,0,0,0,0,0.243593931
0.00337,0.001685,90.1871563,-90.0517949,0.01,1,159.255838,0,0,0,0,0,0,0,0,0,0,0,0,0.600752831
0.003375,0.0016875,89.8934246,-89.89388,0.005,0,160.74997,0,0,0,0,0,0,0,0,0,0,0,0,1.49413276
0.00338,0.00169,90.0123702,-90.0317368,0.005,0,161.02003,0,0,0,0,0,0,0,0,0,0,0,0,0.270059347
0.003385,0.0016925,90.1310228,-90.1550838,0.005,0,161.292325,0,0,0,0,0,0,0,0,0,0,0,0,0.27229476
0.00339,0.001695,90.2524167,-90.2774519,0.005,0,161.561113,0,0,0,0,0,0,0,0,0,0,0,0,0.268788815
0.003395,0.0016975,90.3730451,-90.3986029,0.005,0,161.835234,0,0,0,0,0,0,0,0,0,0,0,0,0.274121046
0.0034,0.0017,90.4938736,-90.519826,0.01,0,162.043606,0,0,0,0,0,0,0,0,0,0,0,0,0.208371401
0.00341,0.001705,91.1523987,-91.0163615,0.01,1,162.581995,0,0,0,0,0,0,0,0,0,0,0,0,0.538389444
0.003415,0.0017075,90.8563481,-90.8570663,0.005,0,163.736967,0,0,0,0,0,0,0,0,0,0,0,0,1.15497208
0.00342,0.00171,90.9743219,-90.9919531,0.005,0,164.006195,0,0,0,0,0,0,0,0,0,0,0,0,0.269227266
0.003425,0.0017125,91.093621,-91.1165825,0.005,0,164.276915,0,0,0,0,0,0,0,0,0,0,0,0,0.270720005
0.00343,0.001715,91.2148473,-91.2314076,0.005,0,164.54641,0,0,0,0,0,0,0,0,0,0,0,0,0.26949501
0.003435,0.0017175,91.3368658,-91.3608232,0.005,0,164.750948,0,0,0,0,0,0,0,0,0,0,0,0,0.204538584
0.00344,0.00172,91.4565948,-91.4820326,0.01,0,164.936437,0,0,0,0,0,0,0,0,0,0,0,0,0.185488701
0.00345,0.001725,92.1176029,-91.9815392,0.01,1,165.723848,0,0,0,0,0,0,0,0,0,0,0,0,0.787410736
0.003455,0.0017275,91.8187307,-91.8191908,0.005,0,166.709963,0,0,0,0,0,0,0,0,0,0,0,0,0.986115694
0.00346,0.00173,91.937459,-91.9568296,0.005,0,166.895532,0,0,0,0,0,0,0,0,0,0,0,0,0.185569048
0.003465,0.0017325,92.0557285,-92.0799544,0.005,0,167.327353,0,0,0,0,0,0,0,0,0,0,0,0,0.431820631
0.00347,0.001735,92.1769063,-92.1938725,0.005,0,167.535787,0,0,0,0,0,0,0,0,0,0,0,0,0.208434343
0.003475,0.0017375,92.2988611,-92.3230625,0.005,0,167.750098,0,0,0,0,0,0,0,0,0,0,0,0,0.214310408
0.00348,0.00174,92.4186453,-92.4440827,0.01,0,168.000178,0,0,0,0,0,0,0,0,0,0,0,0,0.250080109
0.00349,0.001745,93.0838343,-92.9470731,0.01,1,168.529435,0,0,0,0,0,0,0,0,0,0,0,0,0.529256821
0.003495,0.0017475,92.7807677,-92.7812189,0.005,0,169.650656,0,0,0,0,0,0,0,0,0,0,0,0,1.12122178
0.0035,0.00175,92.8993304,-92.9187933,0.005,0,169.834719,0,0,0,0,0,0,0,0,0,0,0,0,0.184062958
0.003505,0.0017525,93.0174538,-93.0417534,0.005,0,170.016016,0,0,0,0,0,0,0,0,0,0,0,0,0.181297064
0.00351,0.001755,93.1385222,-93.1555409,0.005,0,170.199732,0,0,0,0,0,0,0,0,0,0,0,0,0.18371582
0.003515,0.0017575,93.2603467,-93.284627,0.005,0,170.380709,0,0,0,0,0,0,0,0,0,0,0,0,0.180977106
0.00352,0.00176,93.3801626,-93.405645,0.01,0,170.555848,0,0,0,0,0,0,0,0,0,0,0,0,0.175138712
0.00353,0.001765,94.0408969,-93.903502,0.01,1,171.077544,0,0,0,0,0,0,0,0,0,0,0,0,0.521696091
0.003535,0.0017675,93.7418545,-93.7422854,0.005,0,172.1972,0,0,0,0,0,0,0,0,0,0,0,0,1.11965609
0.00354,0.00177,93.8612347,-93.8824794,0.005,0,172.451225,0,0,0,0,0,0,0,0,0,0,0,0,0.254024267
0.003545,0.0017725,93.9781728,-94.0036613,0.005,0,172.634979,0,0,0,0,0,0,0,0,0,0,0,0,0.183754921
0.00355,0.001775,94.10002,-94.1255463,0.005,0,172.820953,0,0,0,0,0,0,0,0,0,0,0,0,0.185973406
0.003555,0.0017775,94.2197266,-94.2458883,0.005,0,173.019242,0,0,0,0,0,0,0,0,0,0,0,0,0.198288918
0.00356,0.00178,94.3413504,-94.3675453,0.01,0,173.205629,0,0,0,0,0,0,0,0,0,0,0,0,0.186387539
0.00357,0.001785,95.0115991,-94.8743181,0.01,1,173.825882,0,0,0,0,0,0,0,0,0,0,0,0,0.620252848
0.003575,0.0017875,94.7022297,-94.7030054,0.005,0,175.135587,0,0,0,0,0,0,0,0,0,0,0,0,1.30970526
0.00358,0.00179,94.821524,-94.8428853,0.005,0,175.313329,0,0,0,0,0,0,0,0,0,0,0,0,0.177741766
0.003585,0.0017925,94.9383127,-94.964027,0.005,0,175.499029,0,0,0,0,0,0,0,0,0,0,0,0,0.185699701
0.00359,0.001795,95.0603412,-95.086043,0.005,0,175.680582,0,0,0,0,0,0,0,0,0,0,0,0,0.181553364
0.003595,0.0017975,95.1796568,-95.2060933,0.005,0,175.924177,0,0,0,0,0,0,0,0,0,0,0,0,0.243595123
0.0036,0.0018,95.3012171,-95.3276158,0.01,0,176.195989,0,0,0,0,0,0,0,0,0,0,0,0,0.271811485
0.00361,0.001805,95.9741147,-95.8361532,0.01,1,176.97253,0,0,0,0,0,0,0,0,0,0,0,0,0.776541233
0.003615,0.0018075,95.6619029,-95.6623612,0.005,0,178.304952,0,0,0,0,0,0,0,0,0,0,0,0,1.33242226
0.00362,0.00181,95.7810708,-95.8024535,0.005,0,178.573602,0,0,0,0,0,0,0,0,0,0,0,0,0.268649817
0.003625,0.0018125,95.8977467,-95.9235278,0.005,0,178.841461,0,0,0,0,0,0,0,0,0,0,0,0,0.267859221
0.00363,0.001815,96.0196307,-96.0454444,0.005,0,179.119253,0,0,0,0,0,0,0,0,0,0,0,0,0.277791977
0.003635,0.0018175,96.1388961,-96.1653754,0.005,0,179.344131,0,0,0,0,0,0,0,0,0,0,0,0,0.224877357
0.00364,0.00182,96.2603538,-96.2868544,0.01,0,179.529401,0,0,0,0,0,0,0,0,0,0,0,0,0.185270548
0.00365,0.001825,96.9357384,-96.7970057,0.01,1,180.1229,0,0,0,0,0,0,0,0,0,0,0,0,0.593498707
0.003655,0.0018275,96.620726,-96.6211835,0.005,0,181.238486,0,0,0,0,0,0,0,0,0,0,0,0,1.11558628
0.00366,0.00183,96.7398124,-96.7612105,0.005,0,181.433884,0,0,0,0,0,0,0,0,0,0,0,0,0.195397854
0.003665,0.0018325,96.8563499,-96.8822143,0.005,0,181.626818,0,0,0,0,0,0,0,0,0,0,0,0,0.192934036
0.00367,0.001835,96.9781245,-97.0040384,0.005,0,181.824102,0,0,0,0,0,0,0,0,0,0,0,0,0.197283506
0.003675,0.0018375,97.0973014,-97.1238725,0.005,0,182.020756,0,0,0,0,0,0,0,0,0,0,0,0,0.19665432
0.00368,0.00184,97.2185538,-97.2451714,0.01,0,182.215851,0,0,0,0,0,0,0,0,0,0,0,0,0.195095301
0.00369,0.001845,97.8947229,-97.755215,0.01,1,182.867167,0,0,0,0,0,0,0,0,0,0,0,0,0.651315451
0.003695,0.0018475,97.5787416,-97.5792167,0.005,0,183.763549,0,0,0,0,0,0,0,0,0,0,0,0,0.896382332
0.0037,0.00185,97.6977858,-97.7191791,0.005,0,183.946836,0,0,0,0,0,0,0,0,0,0,0,0,0.183287382
0.003705,0.0018525,97.8142123,-97.8401325,0.005,0,184.126256,0,0,0,0,0,0,0,0,0,0,0,0,0.179419279
0.00371,0.001855,97.9358725,-97.9618846,0.005,0,184.30292,0,0,0,0,0,0,0,0,0,0,0,0,0.176663876
0.003715,0.0018575,98.0549373,-98.0816131,0.005,0,184.500626,0,0,0,0,0,0,0,0,0,0,0,0,0.197706223
0.00372,0.00186,98.1762495,-98.2029292,0.01,0,184.770702,0,0,0,0,0,0,0,0,0,0,0,0,0.270076036
0.00373,0.001865,98.8548387,-98.7145073,0.01,1,185.571186,0,0,0,0,0,0,0,0,0,0,0,0,0.800483942
0.003735,0.0018675,98.5360104,-98.5364841,0.005,0,186.521799,0,0,0,0,0,0,0,0,0,0,0,0,0.950613022
0.00374,0.00187,98.654951,-98.6763745,0.005,0,186.741727,0,0,0,0,0,0,0,0,0,0,0,0,0.219928503
0.003745,0.0018725,98.7712379,-98.7972457,0.005,0,186.919012,0,0,0,0,0,0,0,0,0,0,0,0,0.177284241
0.00375,0.001875,98.8928145,-98.9189123,0.005,0,187.139658,0,0,0,0,0,0,0,0,0,0,0,0,0.220646381
0.003755,0.0018775,99.0117598,-99.0385325,0.005,0,187.405369,0,0,0,0,0,0,0,0,0,0,0,0,0.265710831
0.00376,0.00188,99.1328107,-99.1596369,0.01,0,187.606133,0,0,0,0,0,0,0,0,0,0,0,0,0.200764179
0.00377,0.001885,99.812208,-99.6710323,0.01,1,188.15836,0,0,0,0,0,0,0,0,0,0,0,0,0.552226782
0.003775,0.0018875,99.8690702,-99.8809282,0.005,1,189.31548,0,0,0,0,0,0,0,0,0,0,0,0,1.15711975
0.00378,0.00189,100.024751,-100.045561,0.005,1,189.898815,0,0,0,0,0,0,0,0,0,0,0,0,0.583335638
0.003785,0.0018925,100.165363,-100.194989,0.005,1,190.451518,0,0,0,0,0,0,0,0,0,0,0,0,0.552702427
0.00379,0.001895,100.304344,-100.337967,0.005,1,191.026863,0,0,0,0,0,0,0,0,0,0,0,0,0.575345755
0.003795,0.0018975,100.43835,-100.475329,0.005,1,191.599002,0,0,0,0,0,0,0,0,0,0,0,0,0.572138548
0.0038,0.0019,100.568032,-100.607018,0.01,1,192.11745,0,0,0,0,0,0,0,0,0,0,0,0,0.518447638
0.003805,0.0019025,100.697556,-100.738255,0.005,1,193.293622,0,0,0,0,0,0,0,0,0,0,0,0,1.17617297
0.00381,0.001905,100.341529,-100.342,0.005,0,193.608353,0,0,0,0,0,0,0,0,0,0,0,0,0.314730883
0.003815,0.0019075,100.463467,-100.483368,0.005,0,193.781131,0,0,0,0,0,0,0,0,0,0,0,0,0.172777653
0.00382,0.00191,100.584718,-100.611417,0.005,0,193.979736,0,0,0,0,0,0,0,0,0,0,0,0,0.198604822
0.003825,0.0019125,100.709842,-100.73783,0.005,0,194.185752,0,0,0,0,0,0,0,0,0,0,0,0,0.206016541
0.00383,0.001915,100.83283,-100.861736,0.01,0,194.380511,0,0,0,0,0,0,0,0,0,0,0,0,0.194758415
0.00384,0.00192,101.517118,-101.386512,0.01,1,195.00874,0,0,0,0,0,0,0,0,0,0,0,0,0.628229618
0.003845,0.0019225,101.588705,-101.606591,0.005,1,195.985813,0,0,0,0,0,0,0,0,0,0,0,0,0.977072239
0.00385,0.001925,101.747894,-101.774475,0.005,1,196.535861,0,0,0,0,0,0,0,0,0,0,0,0,0.550048351
0.003855,0.0019275,101.898875,-101.934362,0.005,1,197.129541,0,0,0,0,0,0,0,0,0,0,0,0,0.593680143
0.00386,0.00193,102.043715,-102.084083,0.005,1,197.696349,0,0,0,0,0,0,0,0,0,0,0,0,0.566807508
0.003865,0.0019325,102.183747,-102.227305,0.005,1,198.245869,0,0,0,0,0,0,0,0,0,0,0,0,0.549520731
0.00387,0.001935,102.320638,-102.366151,0.01,1,198.804125,0,0,0,0,0,0,0,0,0,0,0,0,0.558255196
0.003875,0.0019375,102.416915,-102.476239,0.005,1,200.011545,0,0,0,0,0,0,0,0,0,0,0,0,1.20742059
0.00388,0.00194,102.566071,-102.609943,0.005,1,200.5406,0,0,0,0,0,0,0,0,0,0,0,0,0.529055119
0.003885,0.0019425,102.687014,-102.742101,0.005,1,201.063817,0,0,0,0,0,0,0,0,0,0,0,0,0.523216963
0.00389,0.001945,102.827643,-102.875669,0.005,1,201.583937,0,0,0,0,0,0,0,0,0,0,0,0,0.520119667
0.003895,0.0019475,102.950366,-103.00393,0.005,1,202.13623,0,0,0,0,0,0,0,0,0,0,0,0,0.552293539
0.0039,0.00195,103.079232,-103.131163,0.01,1,202.704986,0,0,0,0,0,0,0,0,0,0,0,0,0.56875515
0.003905,0.0019525,103.205971,-103.258713,0.005,1,203.599578,0,0,0,0,0,0,0,0,0,0,0,0,0.894592285
0.00391,0.001955,102.827693,-102.827949,0.005,0,203.979269,0,0,0,0,0,0,0,0,0,0,0,0,0.379691124
0.003915,0.0019575,102.961545,-102.987689,0.005,0,204.218733,0,0,0,0,0,0,0,0,0,0,0,0,0.239463568
0.00392,0.00196,103.088879,-103.088826,0.005,0,204.617146,0,0,0,0,0,0,0,0,0,0,0,0,0.398412943
0.003925,0.0019625,103.215352,-103.236398,0.005,0,204.890218,0,0,0,0,0,0,0,0,0,0,0,0,0.273072481
0.00393,0.001965,103.342135,-103.369686,0.01,0,205.175239,0,0,0,0,0,0,0,0,0,0,0,0,0.285021305
0.00394,0.00197,104.036207,-103.899341,0.01,1,205.898157,0,0,0,0,0,0,0,0,0,0,0,0,0.722918034
0.003945,0.0019725,104.107399,-104.124661,0.005,1,206.92254,0,0,0,0,0,0,0,0,0,0,0,0,1.02438283
0.00395,0.001975,104.279331,-104.307543,0.005,1,207.521348,0,0,0,0,0,0,0,0,0,0,0,0,0.598807812
0.003955,0.0019775,104.438687,-104.475554,0.005,1,208.117773,0,0,0,0,0,0,0,0,0,0,0,0,0.596424818
0.00396,0.00198,104.589645,-104.632071,0.005,1,208.656077,0,0,0,0,0,0,0,0,0,0,0,0,0.538304329
0.003965,0.0019825,104.739095,-104.783806,0.005,1,209.178394,0,0,0,0,0,0,0,0,0,0,0,0,0.522317171
0.00397,0.001985,104.8839,-104.930944,0.01,1,209.703575,0,0,0,0,0,0,0,0,0,0,0,0,0.525181055
0.003975,0.0019875,105.01671,-105.064884,0.005,1,210.595929,0,0,0,0,0,0,0,0,0,0,0,0,0.892353773
0.00398,0.00199,104.639479,-104.639768,0.005,0,210.948084,0,0,0,0,0,0,0,0,0,0,0,0,0.352154493
0.003985,0.0019925,104.768722,-104.790496,0.005,0,211.113209,0,0,0,0,0,0,0,0,0,0,0,0,0.165125608
0.00399,0.001995,104.89769,-104.926255,0.005,0,211.341662,0,0,0,0,0,0,0,0,0,0,0,0,0.228453159
0.003995,0.0019975,105.03131,-105.031287,0.005,0,211.632077,0,0,0,0,0,0,0,0,0,0,0,0,0.290414572
0.004,0.002,105.162803,-105.188324,0.01,0,211.823849,0,0,0,0,0,0,0,0,0,0,0,0,0.191771984
0.00401,0.002005,105.83801,-105.708473,0.01,1,212.461675,0,0,0,0,0,0,0,0,0,0,0,0,0.637826443
0.004015,0.0020075,105.54735,-105.547813,0.005,0,213.088349,0,0,0,0,0,0,0,0,0,0,0,0,0.626673937
0.00402,0.00201,105.680391,-105.705555,0.005,0,213.291318,0,0,0,0,0,0,0,0,0,0,0,0,0.202968836
0.004025,0.0020125,105.804913,-105.819693,0.005,0,213.498441,0,0,0,0,0,0,0,0,0,0,0,0,0.20712328
0.00403,0.002015,105.937712,-105.962095,0.005,0,213.683728,0,0,0,0,0,0,0,0,0,0,0,0,0.18528676
0.004035,0.0020175,106.06883,-106.096677,0.005,0,213.884163,0,0,0,0,0,0,0,0,0,0,0,0,0.200434685
0.00404,0.00202,106.203022,-106.203012,0.01,0,214.296567,0,0,0,0,0,0,0,0,0,0,0,0,0.41240406
0.00405,0.002025,106.872554,-106.743922,0.01,1,214.862889,0,0,0,0,0,0,0,0,0,0,0,0,0.566322327
0.004055,0.0020275,106.957605,-106.977929,0.005,1,215.836344,0,0,0,0,0,0,0,0,0,0,0,0,0.973454952
0.00406,0.00203,107.137823,-107.163803,0.005,1,216.374207,0,0,0,0,0,0,0,0,0,0,0,0,0.537862778
0.004065,0.0020325,107.300357,-107.335532,0.005,1,217.043073,0,0,0,0,0,0,0,0,0,0,0,0,0.668865919
0.00407,0.002035,107.45847,-107.497389,0.005,1,217.582162,0,0,0,0,0,0,0,0,0,0,0,0,0.539089441
0.004075,0.0020375,107.608708,-107.652222,0.005,1,218.135375,0,0,0,0,0,0,0,0,0,0,0,0,0.553212166
0.00408,0.00204,107.756736,-107.803117,0.01,1,218.693027,0,0,0,0,0,0,0,0,0,0,0,0,0.557652473
0.004085,0.0020425,107.880974,-107.934954,0.005,1,219.923382,0,0,0,0,0,0,0,0,0,0,0,0,1.23035526
0.00409,0.002045,107.512622,-107.512878,0.005,0,220.234888,0,0,0,0,0,0,0,0,0,0,0,0,0.311505556
0.004095,0.0020475,107.648174,-107.674395,0.005,0,220.394242,0,0,0,0,0,0,0,0,0,0,0,0,0.159354448
0.0041,0.00205,107.770538,-107.792659,0.005,0,220.60996,0,0,0,0,0,0,0,0,0,0,0,0,0.215717554
0.004105,0.0020525,107.909108,-107.937802,0.005,0,220.842187,0,0,0,0,0,0,0,0,0,0,0,0,0.232227087
0.00411,0.002055,108.038161,-108.065742,0.01,0,221.054712,0,0,0,0,0,0,0,0,0,0,0,0,0.212524891
0.00412,0.00206,108.734468,-108.601748,0.01,1,221.639134,0,0,0,0,0,0,0,0,0,0,0,0,0.58442235
0.004125,0.0020625,108.433362,-108.433866,0.005,0,222.400268,0,0,0,0,0,0,0,0,0,0,0,0,0.761133432
0.00413,0.002065,108.568656,-108.59438,0.005,0,222.597679,0,0,0,0,0,0,0,0,0,0,0,0,0.197411776
0.004135,0.0020675,108.694111,-108.70937,0.005,0,222.821961,0,0,0,0,0,0,0,0,0,0,0,0,0.224281311
0.00414,0.00207,108.828655,-108.853775,0.005,0,223.010372,0,0,0,0,0,0,0,0,0,0,0,0,0.188411236
0.004145,0.0020725,108.965057,-108.965015,0.005,0,223.3572,0,0,0,0,0,0,0,0,0,0,0,0,0.346828222
0.00415,0.002075,109.099039,-109.124994,0.01,0,223.5964,0,0,0,0,0,0,0,0,0,0,0,0,0.2391994
0.00416,0.00208,109.777836,-109.639672,0.01,1,224.199179,0,0,0,0,0,0,0,0,0,0,0,0,0.602779627
0.004165,0.0020825,109.488577,-109.489017,0.005,0,225.100097,0,0,0,0,0,0,0,0,0,0,0,0,0.900918007
0.00417,0.002085,109.62073,-109.642046,0.005,0,225.313709,0,0,0,0,0,0,0,0,0,0,0,0,0.21361208
0.004175,0.0020875,109.752404,-109.780642,0.005,0,225.527204,0,0,0,0,0,0,0,0,0,0,0,0,0.213495016
0.00418,0.00209,109.888242,-109.88823,0.005,0,225.852885,0,0,0,0,0,0,0,0,0,0,0,0,0.325680733
0.004185,0.0020925,110.022526,-110.048407,0.005,0,226.06386,0,0,0,0,0,0,0,0,0,0,0,0,0.210974693
0.00419,0.002095,110.153075,-110.153069,0.01,0,226.386683,0,0,0,0,0,0,0,0,0,0,0,0,0.322823763
0.0042,0.0021,110.8297,-110.692314,0.01,1,227.018621,0,0,0,0,0,0,0,0,0,0,0,0,0.631937504
0.004205,0.0021025,110.920353,-110.935195,0.005,1,227.936498,0,0,0,0,0,0,0,0,0,0,0,0,0.917877436
0.00421,0.002105,111.103934,-111.130286,0.005,1,228.444381,0,0,0,0,0,0,0,0,0,0,0,0,0.507882833
0.004215,0.0021075,111.264604,-111.300305,0.005,1,228.986989,0,0,0,0,0,0,0,0,0,0,0,0,0.542608023
0.00422,0.00211,111.425123,-111.465622,0.005,1,229.725148,0,0,0,0,0,0,0,0,0,0,0,0,0.738158703
0.004225,0.0021125,111.578655,-111.623171,0.005,1,230.260656,0,0,0,0,0,0,0,0,0,0,0,0,0.535508394
0.00423,0.002115,111.730343,-111.776758,0.01,1,230.780554,0,0,0,0,0,0,0,0,0,0,0,0,0.519897461
0.004235,0.0021175,111.346344,-111.34671,0.005,0,231.735673,0,0,0,0,0,0,0,0,0,0,0,0,0.955118895
0.00424,0.00212,111.481805,-111.508136,0.005,0,231.914606,0,0,0,0,0,0,0,0,0,0,0,0,0.178933144
0.004245,0.0021225,111.612089,-111.611991,0.005,0,232.193125,0,0,0,0,0,0,0,0,0,0,0,0,0.278518915
0.00425,0.002125,111.746298,-111.772358,0.005,0,232.37833,0,0,0,0,0,0,0,0,0,0,0,0,0.185204983
0.004255,0.0021275,111.871152,-111.886829,0.005,0,232.571555,0,0,0,0,0,0,0,0,0,0,0,0,0.193225145
0.00426,0.00213,112.009065,-112.037042,0.01,0,232.777088,0,0,0,0,0,0,0,0,0,0,0,0,0.205532789
0.00427,0.002135,112.707397,-112.568968,0.01,1,233.397691,0,0,0,0,0,0,0,0,0,0,0,0,0.620603323
