# ADR90 WP-A2 tau=0 band, build afb95c40c9e3da1cc97d6aabe8168644c53d0e82 (expected afb95c40c9e3da1cc97d6aabe8168644c53d0e82), leg h1.0_e0.6944
s_m,s_over_B,q_foot_kPa,q_base_kPa,ds_mm,relaxed,wall_s,implex_err_avg,implex_refusals
2e-05,1e-05,2.73884294,-0.563280637,0.02,0,0.0695464611,0.00226130872,0
4e-05,2e-05,2.23070501,-2.16056071,0.02,0,0.165598392,0.000430746085,0
6e-05,3e-05,2.59500075,-2.65246655,0.02,0,0.258614779,0.000224179238,0
8e-05,4e-05,2.97768936,-3.00798077,0.02,0,0.350773335,0.000154133543,0
0.0001,5e-05,3.34883649,-3.36159697,0.02,0,0.444518566,9.26460994e-05,0
0.00012,6e-05,3.73757147,-3.73888508,0.04,0,0.524420023,7.2683314e-05,0
0.00016,8e-05,4.52069692,-4.52528639,0.04,0,0.620109558,0.000122380239,0
0.0002,0.0001,5.29987018,-5.31796094,0.04,0,0.717735767,0.000132585133,0
0.00024,0.00012,6.06593397,-6.08599026,0.04,0,0.833807707,0.000117258672,0
0.00028,0.00014,6.81866112,-6.83283126,0.04,0,0.953253031,8.82562031e-05,0
0.00032,0.00016,7.55392357,-7.55644309,0.04,0,1.07246757,6.79547692e-05,0
0.00036,0.00018,8.25850511,-8.25787319,0.08,0,1.18813062,5.33667667e-05,0
0.00044,0.00022,9.64259267,-9.63708318,0.08,0,1.35307002,9.47421011e-05,0
0.00052,0.00026,10.9719996,-10.9794844,0.08,0,1.53242421,0.000108955493,0
0.0006,0.0003,12.2738929,-12.276588,0.08,0,1.69668937,0.000103668125,0
0.00068,0.00034,13.5396263,-13.5515288,0.08,0,1.86978412,9.48270367e-05,0
0.00076,0.00038,14.7852969,-14.7998621,0.08,0,2.03339863,9.36703051e-05,0
0.00084,0.00042,16.0103887,-16.018875,0.16,0,2.21699119,8.75143328e-05,0
0.001,0.0005,18.4551884,-18.4572498,0.16,0,2.52324367,0.000131820735,0
0.00116,0.00058,20.8648858,-20.8720837,0.16,0,2.79605722,0.000157242985,0
0.00132,0.00066,23.2369183,-23.2584819,0.16,0,3.09939098,0.000157158155,0
0.00148,0.00074,25.5782854,-25.7478013,0.16,0,3.34130716,0.000157987849,0
0.00164,0.00082,27.8847329,-27.8969326,0.16,0,3.63481236,0.000155943301,0
0.0018,0.0009,30.1423464,-29.6986785,0.32,0,3.89173698,0.000159783943,0
0.00212,0.00106,34.6375079,-34.2310558,0.32,0,4.31055379,0.000227304148,0
0.00244,0.00122,39.1081293,-38.8385319,0.32,0,4.68791652,0.000271377146,0
0.00276,0.00138,43.5178791,-43.3266307,0.32,0,5.09719753,0.000298954938,0
0.00308,0.00154,47.83519,-47.754455,0.32,0,5.51396847,0.000301372457,0
0.0034,0.0017,52.0983452,-52.1229764,0.32,0,5.89877009,0.000288738321,0
0.00372,0.00186,56.3152,-56.3524419,0.64,0,6.30023479,0.000265980433,0
0.00436,0.00218,64.7508202,-64.8621108,0.64,0,6.91632223,0.000344221917,0
0.005,0.0025,73.2112226,-73.262157,0.64,0,7.52675152,0.000438037525,0
0.00564,0.00282,81.4829653,-81.495595,0.64,0,8.1296854,0.000482298916,0
0.00628,0.00314,89.5478172,-89.51692,0.64,0,8.76170874,0.00049164921,0
0.00692,0.00346,97.4520106,-97.378944,0.64,0,9.36517406,0.000473283644,0
0.00756,0.00378,105.268992,-105.14103,1.28,0,9.96406817,0.000446719434,0
0.00884,0.00442,121.11798,-120.794049,1.28,0,10.9553404,0.000598468416,0
0.01012,0.00506,137.12499,-136.703184,1.28,0,11.9728844,0.000780046982,0
0.0114,0.0057,152.926739,-152.430139,1.28,0,12.9438291,0.000914225791,0
0.01268,0.00634,168.349853,-167.805613,1.28,0,13.9300616,0.000982727082,0
0.01396,0.00698,183.48665,-182.909342,1.28,0,14.9088836,0.000993645926,0
0.01524,0.00762,198.427078,-197.78267,2.56,0,15.9008801,0.000963320908,0
0.01652,0.00826,213.322211,-212.619295,1.28,0,17.9670942,0.000910932597,12
0.0178,0.0089,228.178408,-227.450526,1.28,0,18.9259372,0.000862198317,12
0.01908,0.00954,243.089309,-242.335088,1.28,0,19.86081,0.000813158607,12
0.02036,0.01018,258.016049,-257.260402,1.28,0,20.819263,0.00077371717,12
0.02164,0.01082,272.963948,-272.233417,1.28,0,21.7453506,0.000735705358,12
0.02292,0.01146,287.896419,-287.169186,2.56,0,22.6868532,0.000703022867,12
0.0242,0.0121,302.826855,-302.165616,1.28,0,24.7491415,0.000667810763,24
0.02548,0.01274,317.712182,-317.091952,1.28,0,25.7017531,0.000628903442,24
0.02676,0.01338,332.586598,-332.064736,1.28,0,26.630434,0.000582293896,24
0.02804,0.01402,347.408209,-346.984042,1.28,0,27.5475748,0.000536156386,24
0.02932,0.01466,362.23013,-361.961267,1.28,0,28.4568639,0.00048467133,24
0.0306,0.0153,377.039712,-376.835745,2.56,0,29.5402744,0.00043792798,24
0.03188,0.01594,391.8387,-391.741751,1.28,0,32.1146541,0.00038989723,36
0.03316,0.01658,406.623846,-406.604262,1.28,0,33.2715924,0.000346697995,36
0.03444,0.01722,421.438167,-421.410759,1.28,0,34.7472408,0.000317142083,36
0.03572,0.01786,436.169075,-436.294082,1.28,0,35.918056,0.000293571924,36
0.037,0.0185,450.900272,-451.023649,1.28,0,37.1361055,0.000275841411,36
0.03828,0.01914,465.616085,-465.781007,2.56,0,38.5650601,0.000257797473,36
0.03956,0.01978,480.310683,-480.491695,1.28,0,42.0360565,0.000244758701,48
0.04084,0.02042,495.004494,-495.140162,1.28,0,43.2293055,0.000234019795,48
0.04212,0.02106,509.678505,-509.85263,1.28,0,44.3931994,0.000225414939,48
0.0434,0.0217,524.342646,-524.434055,1.28,0,45.5233707,0.000215300985,48
0.04468,0.02234,538.977947,-539.107576,1.28,0,46.615917,0.000208173792,48
0.04596,0.02298,553.617333,-553.674364,2.56,0,47.6580319,0.000198785108,48
0.04724,0.02362,568.229184,-568.304889,1.28,0,50.0137887,0.00020317914,60
0.04852,0.02426,582.851275,-582.786798,1.28,0,51.1331894,0.000192437291,60
0.0498,0.0249,597.43049,-597.409076,1.28,0,52.2222133,0.000191820947,60
0.05108,0.02554,612.037947,-611.908543,1.28,0,53.4005246,0.000188257771,60
0.05236,0.02618,626.602459,-626.480984,1.28,0,54.4949145,0.00019448966,60
0.05364,0.02682,641.18151,-640.984849,2.56,0,55.8066537,0.000189030714,60
0.05492,0.02746,655.773305,-655.542949,1.28,0,58.0137303,0.000193688399,72
0.0562,0.0281,670.267082,-670.041289,1.28,0,59.089227,0.000191177307,72
0.05748,0.02874,684.795133,-684.565507,1.28,0,60.0809085,0.000195879636,72
0.05876,0.02938,699.293081,-699.022559,1.28,0,61.1356001,0.000192974976,72
0.06004,0.03002,713.785628,-713.572586,1.28,0,62.1092818,0.000191120757,72
0.06132,0.03066,728.295955,-728.01803,2.56,0,63.1040401,0.000191125916,72
0.0626,0.0313,742.808658,-742.547161,1.28,0,65.5658963,0.00019165264,84
0.06388,0.03194,757.288791,-757.029223,1.28,0,66.6273289,0.000189222373,84
0.06516,0.03258,771.738392,-771.540413,1.28,0,67.7260125,0.000185785396,84
0.06644,0.03322,786.214155,-786.0136,1.28,0,68.7894661,0.000179846387,84
0.06772,0.03386,800.663402,-800.505422,1.28,0,69.8401268,0.000173269727,84
0.069,0.0345,815.126658,-814.978062,2.56,0,70.8744388,0.000164822787,84
0.07028,0.03514,829.620904,-829.497661,1.28,0,73.2936361,0.000162885224,96
0.07156,0.03578,844.07097,-843.939913,1.28,0,74.3961408,0.000154787021,96
0.07284,0.03642,858.479088,-858.448622,1.28,0,75.4636824,0.000152700196,96
0.07412,0.03706,872.910786,-872.914981,1.28,0,76.5228739,0.000146490393,96
0.0754,0.0377,887.313746,-887.314312,1.28,0,77.5783634,0.000144667982,96
0.07668,0.03834,901.709361,-901.763878,2.56,0,78.844131,0.000140769506,96
0.07796,0.03898,916.109039,-916.211542,1.28,0,81.2403889,0.000139233299,108
0.07924,0.03962,930.504662,-930.56374,1.28,0,82.258414,0.000140544956,108
0.08052,0.04026,944.864142,-945.02279,1.28,0,83.3538864,0.000142298714,108
0.0818,0.0409,959.222212,-959.339903,1.28,0,84.4343207,0.000142946526,108
0.08308,0.04154,973.554885,-973.714427,1.28,0,85.6267126,0.000143243559,108
0.08436,0.04218,987.845045,-987.97968,2.56,0,87.0470982,0.000142216214,108
0.08564,0.04282,1002.14389,-1002.33649,1.28,0,89.5503957,0.000143403942,120
0.08692,0.04346,1016.4149,-1016.53619,1.28,0,90.5143759,0.000143331382,120
0.0882,0.0441,1030.66357,-1030.84711,1.28,0,91.5411777,0.00014546677,120
0.08948,0.04474,1044.88737,-1045.04492,1.28,0,92.6386397,0.000143195758,120
0.09076,0.04538,1059.08281,-1059.23682,1.28,0,93.7687874,0.000143938338,120
0.09204,0.04602,1073.28351,-1073.38022,2.56,0,94.8640606,0.000134689349,120
0.09332,0.04666,1087.39606,-1087.5662,1.28,0,97.2643974,0.000137347161,132
0.0946,0.0473,1101.53369,-1101.61344,1.28,0,98.2267582,0.000130106699,132
0.09588,0.04794,1115.61698,-1115.77873,1.28,0,99.1958234,0.000127042315,132
0.09716,0.04858,1129.6892,-1129.77516,1.28,0,100.225958,0.00012347776,132
0.09844,0.04922,1143.71577,-1143.83589,1.28,0,101.183448,0.000121544268,132
0.09972,0.04986,1157.74714,-1157.7896,2.56,0,102.118197,0.000109708972,132
0.101,0.0505,1171.74595,-1171.84562,1.28,0,104.316221,0.000106016034,144
0.10228,0.05114,1185.74494,-1185.77839,1.28,0,105.398875,9.89927322e-05,144
0.10356,0.05178,1199.73413,-1199.78659,1.28,0,106.33373,9.40863332e-05,144
0.10484,0.05242,1213.71128,-1213.72828,1.28,0,107.293949,8.75689031e-05,144
0.10612,0.05306,1227.65631,-1227.6755,1.28,0,108.23939,8.49261491e-05,144
0.1074,0.0537,1241.61423,-1241.56804,2.56,0,109.185667,7.94892261e-05,144
0.10868,0.05434,1255.47997,-1255.49182,1.28,0,111.268878,8.39974636e-05,156
0.10996,0.05498,1269.37984,-1269.34551,1.28,0,112.20287,7.87079938e-05,156
0.11124,0.05562,1283.27549,-1283.24961,1.28,0,113.330746,7.87461478e-05,156
0.11252,0.05626,1297.13159,-1297.11276,1.28,0,114.516487,7.88328952e-05,156
0.1138,0.0569,1311.01857,-1310.98487,1.28,0,115.573145,8.29556816e-05,156
0.11508,0.05754,1324.85012,-1324.80932,2.56,0,116.5467,8.3098694e-05,156
0.11636,0.05818,1338.66804,-1338.65959,1.28,0,119.104484,7.88395019e-05,168
0.11764,0.05882,1352.49731,-1352.44172,1.28,0,120.447918,7.96476726e-05,168
0.11892,0.05946,1366.29743,-1366.30425,1.28,0,121.474255,7.96317969e-05,168
0.1202,0.0601,1380.09029,-1380.07556,1.28,0,122.535981,7.64084331e-05,168
0.12148,0.06074,1393.87116,-1393.87059,1.28,0,123.7429,7.54236872e-05,168
0.12276,0.06138,1407.70845,-1407.6176,2.56,0,124.90856,6.9676915e-05,168
0.12404,0.06202,1421.38798,-1421.43544,1.28,0,127.105277,7.00344629e-05,180
0.12532,0.06266,1435.14821,-1435.14829,1.28,0,128.095862,6.76068477e-05,180
0.1266,0.0633,1448.84338,-1448.92202,1.28,0,129.077898,6.8060348e-05,180
0.12788,0.06394,1462.57027,-1462.60404,1.28,0,130.040339,6.64771872e-05,180
0.12916,0.06458,1476.27568,-1476.36464,1.28,0,130.993547,6.66057987e-05,180
0.13044,0.06522,1489.95716,-1490.01678,2.56,0,132.015791,6.95858699e-05,180
0.13172,0.06586,1503.60999,-1503.72786,1.28,0,133.999901,7.16952689e-05,192
0.133,0.0665,1517.2436,-1517.32418,1.28,0,134.937956,7.26851948e-05,192
0.13428,0.06714,1530.86982,-1531.01259,1.28,0,135.903025,7.5992568e-05,192
0.13556,0.06778,1544.4436,-1544.56682,1.28,0,136.861955,8.03682182e-05,192
0.13684,0.06842,1558.02206,-1558.17927,1.28,0,137.786911,7.99089685e-05,192
0.13812,0.06906,1571.5711,-1571.69062,2.56,0,138.755308,8.36809653e-05,192
0.1394,0.0697,1585.11256,-1585.28781,1.28,0,140.693086,8.42765684e-05,204
0.14068,0.07034,1598.63185,-1598.78549,1.28,0,141.643545,8.85937999e-05,204
0.14196,0.07098,1612.12851,-1612.33066,1.28,0,142.617828,8.80787036e-05,204
0.14324,0.07162,1625.59785,-1625.77698,1.28,0,143.503089,8.93523986e-05,204
0.14452,0.07226,1639.05351,-1639.23584,1.28,0,144.454798,8.91672634e-05,204
0.1458,0.0729,1652.48437,-1652.67772,2.56,0,145.414891,8.98323048e-05,204
0.14708,0.07354,1665.8911,-1666.0757,1.28,0,147.34765,9.03553112e-05,216
0.14836,0.07418,1679.25558,-1679.48605,1.28,0,148.277909,9.28418055e-05,216
0.14964,0.07482,1692.59473,-1692.79613,1.28,0,149.157652,9.24133045e-05,216
0.15092,0.07546,1705.92309,-1706.10756,1.28,0,150.023893,9.04460506e-05,216
0.1522,0.0761,1719.24153,-1719.42865,1.28,0,150.90574,8.89134518e-05,216
0.15348,0.07674,1732.51617,-1732.73599,2.56,0,151.744912,9.23599665e-05,216
0.15476,0.07738,1745.781,-1745.93949,1.28,0,153.616175,8.919878e-05,228
0.15604,0.07802,1758.99758,-1759.16776,1.28,0,154.512578,8.93986652e-05,228
0.15732,0.07866,1772.19264,-1772.35142,1.28,0,155.39004,8.71359046e-05,228
0.1586,0.0793,1785.37762,-1785.51715,1.28,0,156.369122,8.97955383e-05,228
0.15988,0.07994,1798.52398,-1798.64189,1.28,0,157.486284,8.61843381e-05,228
0.16116,0.08058,1811.6744,-1811.80312,2.56,0,158.437156,8.63440365e-05,228
0.16244,0.08122,1824.79605,-1824.88932,1.28,0,160.345762,8.24562014e-05,240
0.16372,0.08186,1837.89181,-1837.99639,1.28,0,161.289068,8.38947538e-05,240
0.165,0.0825,1850.95613,-1851.06774,1.28,0,162.409598,8.13743557e-05,240
0.16628,0.08314,1863.98735,-1864.04168,1.28,0,163.30712,8.54898601e-05,240
0.16756,0.08378,1876.99548,-1877.05823,1.28,0,164.38028,8.43215666e-05,240
0.16884,0.08442,1889.97244,-1890.06761,2.56,0,165.350521,8.46747024e-05,240
0.17012,0.08506,1902.94782,-1903.01638,1.28,0,167.630972,8.39858919e-05,252
0.1714,0.0857,1915.87687,-1915.95919,1.28,0,168.603426,8.6420145e-05,252
0.17268,0.08634,1928.79263,-1928.84779,1.28,0,169.585302,8.44556194e-05,252
0.17396,0.08698,1941.66044,-1941.7419,1.28,0,170.659321,8.51943422e-05,252
0.17524,0.08762,1954.53369,-1954.6049,1.28,0,171.662643,8.41675269e-05,252
0.17652,0.08826,1967.35513,-1967.40324,2.56,0,172.615241,8.28692172e-05,252
0.1778,0.0889,1980.14333,-1980.21898,1.28,0,174.589845,8.37526149e-05,264
0.17908,0.08954,1992.90123,-1992.98082,1.28,0,175.721776,8.08154234e-05,264
0.18036,0.09018,2005.63673,-2005.74707,1.28,0,176.604634,8.49894675e-05,264
0.18164,0.09082,2018.35205,-2018.48791,1.28,0,177.535459,7.92074926e-05,264
0.18292,0.09146,2031.03246,-2031.15113,1.28,0,178.396353,8.31100968e-05,264
0.1842,0.0921,2043.73133,-2043.89718,2.56,0,179.280023,7.97319198e-05,264
0.18548,0.09274,2056.36877,-2056.53709,1.28,0,181.303751,8.04382263e-05,276
0.18676,0.09338,2068.98543,-2069.1534,1.28,0,182.201195,7.99799097e-05,276
0.18804,0.09402,2081.56241,-2081.74381,1.28,0,183.134056,8.09285698e-05,276
0.18932,0.09466,2094.11865,-2094.33323,1.28,0,184.035206,8.32308249e-05,276
0.1906,0.0953,2106.65432,-2106.80994,1.28,0,184.842085,8.2480906e-05,276
0.19188,0.09594,2119.14357,-2119.36584,2.56,0,185.671009,8.01751743e-05,276
0.19316,0.09658,2131.62545,-2131.84202,1.28,0,187.532512,8.42110378e-05,288
0.19444,0.09722,2144.09107,-2144.29932,1.28,0,188.480948,8.0031019e-05,288
0.19572,0.09786,2156.54111,-2156.80979,1.28,0,189.376528,8.40323379e-05,288
0.197,0.0985,2168.94914,-2169.16387,1.28,0,190.253839,7.97647227e-05,288
0.19828,0.09914,2181.32337,-2181.57394,1.28,0,191.311198,8.48087493e-05,288
0.19956,0.09978,2193.66952,-2193.89391,2.56,0,192.403097,8.42185276e-05,288
0.20084,0.10042,2205.97578,-2206.20408,1.28,0,194.284364,8.44222218e-05,300
0.20212,0.10106,2218.25875,-2218.49223,1.28,0,195.159818,8.68271867e-05,300
0.2034,0.1017,2230.51055,-2230.76532,1.28,0,196.074395,8.56167696e-05,300
0.20468,0.10234,2242.75657,-2242.9542,1.28,0,196.921365,8.33363198e-05,300
0.20596,0.10298,2254.94526,-2255.17943,1.28,0,197.792099,8.6831881e-05,300
0.20724,0.10362,2267.11389,-2267.36585,2.56,0,198.598308,8.18970908e-05,300
0.20852,0.10426,2279.24817,-2279.49654,1.28,0,200.527391,8.11183684e-05,312
0.2098,0.1049,2291.40333,-2291.56317,1.28,0,201.426092,8.38272845e-05,312
0.21108,0.10554,2303.38867,-2303.64273,1.28,0,202.348279,8.1601017e-05,312
0.21236,0.10618,2315.47577,-2315.63925,1.28,0,203.247982,8.08866394e-05,312
0.21364,0.10682,2327.46746,-2327.69315,1.28,0,204.099893,8.32402128e-05,312
0.21492,0.10746,2339.50364,-2339.65184,2.56,0,204.998196,8.32741933e-05,312
0.2162,0.1081,2351.4809,-2351.62244,1.28,0,207.074576,7.70859235e-05,324
0.21748,0.10874,2363.44561,-2363.61869,1.28,0,208.004708,7.71536712e-05,324
0.21876,0.10938,2375.3829,-2375.54474,1.28,0,208.866728,7.54310402e-05,324
0.22004,0.11002,2387.31686,-2387.46153,1.28,0,209.779498,7.40263104e-05,324
0.22132,0.11066,2399.17931,-2399.30378,1.28,0,210.699299,7.23908452e-05,324
0.2226,0.1113,2411.03056,-2411.16028,2.56,0,211.560284,7.53209663e-05,324
0.22388,0.11194,2422.83038,-2422.95105,1.28,0,213.426992,7.47604497e-05,336
0.22516,0.11258,2434.62764,-2434.72509,1.28,0,214.330401,7.39196817e-05,336
0.22644,0.11322,2446.35562,-2446.46855,1.28,0,215.179893,7.38061892e-05,336
0.22772,0.11386,2458.0725,-2458.14104,1.28,0,216.110568,7.3807422e-05,336
0.229,0.1145,2469.76527,-2469.86734,1.28,0,216.91346,7.11577876e-05,336
0.23028,0.11514,2481.45006,-2481.51659,2.56,0,217.829237,7.2585536e-05,336
0.23156,0.11578,2493.0994,-2493.17278,1.28,0,220.384778,7.07541239e-05,348
0.23284,0.11642,2504.75034,-2504.81646,1.28,0,221.285607,7.13272299e-05,348
0.23412,0.11706,2516.37296,-2516.43146,1.28,0,222.109893,6.76564998e-05,348
0.2354,0.1177,2527.98339,-2528.04211,1.28,0,223.0259,6.88227506e-05,348
0.23668,0.11834,2539.55765,-2539.62671,1.28,0,223.931961,6.57106942e-05,348
0.23796,0.11898,2551.15674,-2551.17802,2.56,0,224.955826,6.6361751e-05,348
0.23924,0.11962,2562.65245,-2562.67797,1.28,0,226.808949,6.58964789e-05,360
0.24052,0.12026,2574.13504,-2574.17935,1.28,0,227.682776,6.35574781e-05,360
0.2418,0.1209,2585.66322,-2585.66387,1.28,0,228.572977,6.29009066e-05,360
0.24308,0.12154,2597.09288,-2597.14012,1.28,0,229.471266,6.10090183e-05,360
0.24436,0.12218,2608.541,-2608.55122,1.28,0,230.309376,5.98340321e-05,360
0.24564,0.12282,2619.93969,-2620.00354,2.56,0,231.151687,5.87912535e-05,360
0.24692,0.12346,2631.3435,-2631.37518,1.28,0,232.951338,5.66463037e-05,372
0.2482,0.1241,2642.68726,-2642.77439,1.28,0,233.754013,5.51082206e-05,372
0.24948,0.12474,2654.05435,-2654.13206,1.28,0,234.628596,5.40279335e-05,372
0.25076,0.12538,2665.38309,-2665.47381,1.28,0,235.626304,5.56469568e-05,372
0.25204,0.12602,2676.69884,-2676.79302,1.28,0,236.473891,5.68184362e-05,372
0.25332,0.12666,2687.97921,-2688.10027,2.56,0,237.235247,5.78537782e-05,372
0.2546,0.1273,2699.24393,-2699.36236,1.28,0,238.706916,5.51825495e-05,384
0.25588,0.12794,2710.47953,-2710.62069,1.28,0,239.417078,5.72480809e-05,384
0.25716,0.12858,2721.70118,-2721.84349,1.28,0,240.129691,5.8355393e-05,384
0.25844,0.12922,2732.89669,-2733.07079,1.28,0,240.815088,6.02070661e-05,384
0.25972,0.12986,2744.0724,-2744.2596,1.28,0,241.520925,6.31665541e-05,384
0.261,0.1305,2755.21913,-2755.38247,2.56,0,242.184492,6.26025202e-05,384
0.26228,0.13114,2766.3177,-2766.52461,1.28,0,243.702195,6.55436058e-05,396
0.26356,0.13178,2777.43868,-2777.59874,1.28,0,244.389326,6.75474128e-05,396
0.26484,0.13242,2788.50851,-2788.67127,1.28,0,245.057045,6.74162783e-05,396
0.26612,0.13306,2799.54075,-2799.75447,1.28,0,245.758452,7.05518524e-05,396
0.2674,0.1337,2810.54481,-2810.78819,1.28,0,246.432502,6.98950761e-05,396
0.26868,0.13434,2821.56664,-2821.8026,2.56,0,247.164526,6.90071576e-05,396
0.26996,0.13498,2832.53602,-2832.7698,1.28,0,248.678133,7.19589108e-05,408
0.27124,0.13562,2843.48373,-2843.74407,1.28,0,249.360177,7.3259051e-05,408
0.27252,0.13626,2854.39373,-2854.66388,1.28,0,250.05556,7.59478755e-05,408
0.2738,0.1369,2865.26565,-2865.50001,1.28,0,250.78206,7.87663085e-05,408
0.27508,0.13754,2876.10594,-2876.37861,1.28,0,251.494903,7.67579828e-05,408
0.27636,0.13818,2886.94653,-2887.18087,2.56,0,252.206953,7.86527128e-05,408
0.27764,0.13882,2897.71878,-2897.993,1.28,0,253.772723,8.08435852e-05,420
0.27892,0.13946,2908.49373,-2908.76511,1.28,0,254.529056,7.76462425e-05,420
0.2802,0.1401,2919.24309,-2919.50406,1.28,0,255.21731,7.80808799e-05,420
0.28148,0.14074,2929.96672,-2930.28569,1.28,0,255.92077,8.1127736e-05,420
0.28276,0.14138,2940.65877,-2940.93115,1.28,0,256.580423,8.13852084e-05,420
0.28404,0.14202,2951.3152,-2951.56741,2.56,0,257.241539,8.20285661e-05,420
0.28532,0.14266,2961.93067,-2962.18641,1.28,0,258.825181,8.34033905e-05,432
0.2866,0.1433,2972.51579,-2972.77061,1.28,0,259.64358,8.25343689e-05,432
0.28788,0.14394,2983.05223,-2983.324,1.28,0,260.435849,8.32306958e-05,432
0.28916,0.14458,2993.58078,-2993.8258,1.28,0,261.250359,8.2462462e-05,432
0.29044,0.14522,3004.04095,-3004.28421,1.28,0,262.131927,8.48592215e-05,432
0.29172,0.14586,3014.48156,-3014.67992,2.56,0,262.969126,8.41974185e-05,432
0.293,0.1465,3024.87627,-3025.10742,1.28,0,264.770622,8.71598505e-05,444
0.29428,0.14714,3035.2667,-3035.44884,1.28,0,265.591529,8.79909275e-05,444
0.29556,0.14778,3045.61558,-3045.80874,1.28,0,266.386384,9.08841308e-05,444
0.29684,0.14842,3055.98618,-3056.13076,1.28,0,267.204425,9.05866842e-05,444
0.29812,0.14906,3066.3029,-3066.49737,1.28,0,268.063036,9.13474138e-05,444
0.2994,0.1497,3076.61999,-3076.73476,2.56,0,268.902298,9.18653073e-05,444
0.30068,0.15034,3086.89861,-3087.0171,1.28,0,270.732333,9.23882065e-05,456
0.30196,0.15098,3097.15067,-3097.2265,1.28,0,271.572453,9.1215718e-05,456
0.30324,0.15162,3107.34143,-3107.4263,1.28,0,272.426991,8.85895625e-05,456
0.30452,0.15226,3117.51388,-3117.55172,1.28,0,273.266361,9.02174445e-05,456
0.3058,0.1529,3127.64318,-3127.71746,1.28,0,274.104928,8.77527616e-05,456
0.30708,0.15354,3137.78852,-3137.83446,2.56,0,274.910455,8.65310595e-05,456
0.30836,0.15418,3147.93559,-3147.90689,1.28,0,276.729541,8.53862389e-05,468
0.30964,0.15482,3157.96914,-3158.00362,1.28,0,277.534007,8.69831926e-05,468
0.31092,0.15546,3168.0698,-3168.05748,1.28,0,278.351258,8.27703037e-05,468
0.3122,0.1561,3178.08699,-3178.09615,1.28,0,279.257377,8.11031224e-05,468
0.31348,0.15674,3188.08874,-3188.10638,1.28,0,280.108407,8.10865808e-05,468
0.31476,0.15738,3198.08101,-3198.09008,2.56,0,280.973332,7.82290889e-05,468
0.31604,0.15802,3208.05844,-3208.08158,1.28,0,282.905059,7.5996072e-05,480
0.31732,0.15866,3218.02689,-3218.02232,1.28,0,283.756881,7.89982528e-05,480
0.3186,0.1593,3227.99376,-3227.96278,1.28,0,284.619934,7.45422784e-05,480
0.31988,0.15994,3237.92398,-3237.94741,1.28,0,285.414859,7.40079644e-05,480
0.32116,0.16058,3247.87072,-3247.85035,1.28,0,286.269241,6.98404388e-05,480
0.32244,0.16122,3257.77681,-3257.81369,2.56,0,287.112704,7.27765726e-05,480
0.32372,0.16186,3267.6495,-3267.70663,1.28,0,289.066213,6.82078133e-05,492
0.325,0.1625,3277.54973,-3277.58511,1.28,0,289.9104,7.09328e-05,492
0.32628,0.16314,3287.42167,-3287.46748,1.28,0,290.763042,6.78317777e-05,492
0.32756,0.16378,3297.28727,-3297.33427,1.28,0,291.560927,6.94417476e-05,492
0.32884,0.16442,3307.14288,-3307.20304,1.28,0,292.428778,7.19365147e-05,492
0.33012,0.16506,3316.97185,-3317.06768,2.56,0,293.315994,7.37180669e-05,492
0.3314,0.1657,3326.78241,-3326.89169,1.28,0,295.218878,7.51277994e-05,504
0.33268,0.16634,3336.57257,-3336.71848,1.28,0,296.012199,7.71319326e-05,504
0.33396,0.16698,3346.33962,-3346.49589,1.28,0,296.752864,7.91156074e-05,504
0.33524,0.16762,3356.05675,-3356.22824,1.28,0,297.504691,8.18780144e-05,504
0.33652,0.16826,3365.7834,-3365.97167,1.28,0,298.336539,8.39510501e-05,504
0.3378,0.1689,3375.48065,-3375.74084,2.56,0,299.14085,8.43934964e-05,504
0.33908,0.16954,3385.20205,-3385.3818,1.28,0,300.908661,8.36463493e-05,516
0.34036,0.17018,3394.87354,-3395.12609,1.28,0,301.708308,8.94203776e-05,516
0.34164,0.17082,3404.57097,-3404.79641,1.28,0,302.449844,8.87591304e-05,516
0.34292,0.17146,3414.20038,-3414.51408,1.28,0,303.246634,9.36477955e-05,516
0.3442,0.1721,3423.83632,-3424.13808,1.28,0,304.032538,9.32653934e-05,516
0.34548,0.17274,3433.44211,-3433.78917,2.56,0,304.788086,9.56668363e-05,516
0.34676,0.17338,3443.01313,-3443.33667,1.28,0,306.464232,9.53812741e-05,528
0.34804,0.17402,3452.54892,-3452.91681,1.28,0,307.251416,9.67025921e-05,528
0.34932,0.17466,3462.09178,-3462.4506,1.28,0,308.036414,9.75743987e-05,528
0.3506,0.1753,3471.55009,-3471.9974,1.28,0,308.815376,0.000101448391,528
0.35188,0.17594,3481.02926,-3481.4602,1.28,0,309.591865,0.000101266436,528
0.35316,0.17658,3490.4544,-3490.87137,2.56,0,310.401142,0.000101732434,528
0.35444,0.17722,3499.83133,-3500.29002,1.28,0,312.135706,0.000101011416,540
0.35572,0.17786,3509.18656,-3509.6513,1.28,0,312.885739,0.000100749123,540
0.357,0.1785,3518.49303,-3518.91901,1.28,0,313.662129,0.00010139587,540
0.35828,0.17914,3527.76229,-3528.21937,1.28,0,314.444982,0.000103436083,540
0.35956,0.17978,3536.97724,-3537.41401,1.28,0,315.261388,0.000105453149,540
0.36084,0.18042,3546.17293,-3546.59458,2.56,0,316.068779,0.000108351295,540
0.36212,0.18106,3555.30422,-3555.74284,1.28,0,317.858033,0.000111072469,552
0.3634,0.1817,3564.42581,-3564.82953,1.28,0,318.626282,0.000113945424,552
0.36468,0.18234,3573.49451,-3573.91158,1.28,0,319.427964,0.000120500643,552
0.36596,0.18298,3582.58666,-3582.95391,1.28,0,320.247496,0.000123369488,552
0.36724,0.18362,3591.5859,-3591.98149,1.28,0,320.97904,0.000126308484,552
0.36852,0.18426,3600.61808,-3600.90522,2.56,0,321.800138,0.000131424948,552
0.3698,0.1849,3609.528,-3609.85145,1.28,0,323.627712,0.000136129753,564
0.37108,0.18554,3618.46072,-3618.72818,1.28,0,324.43271,0.000138213775,564
0.37236,0.18618,3627.32804,-3627.60246,1.28,0,325.238317,0.00014250395,564
0.37364,0.18682,3636.19251,-3636.42825,1.28,0,326.093903,0.000144631096,564
0.37492,0.18746,3645.01385,-3645.23245,1.28,0,326.905077,0.000148521979,564
0.3762,0.1881,3653.80935,-3653.99893,2.56,0,327.69658,0.00014970253,564
0.37748,0.18874,3662.56891,-3662.70055,1.28,0,329.502749,0.000151275714,576
0.37876,0.18938,3671.3242,-3671.44566,1.28,0,330.269639,0.000150342912,576
0.38004,0.19002,3680.06076,-3680.12167,1.28,0,331.0995,0.000151171256,576
0.38132,0.19066,3688.7751,-3688.81203,1.28,0,331.950891,0.000150319127,576
0.3826,0.1913,3697.46979,-3697.49478,1.28,0,332.83626,0.000149738185,576
0.38388,0.19194,3706.1809,-3706.10853,2.56,0,333.607394,0.000149673443,576
0.38516,0.19258,3714.8599,-3714.7679,1.28,0,335.451533,0.000148899647,588
0.38644,0.19322,3723.50805,-3723.39452,1.28,0,336.213907,0.000151188019,588
0.38772,0.19386,3732.16953,-3732.04674,1.28,0,336.958959,0.000151856474,588
0.389,0.1945,3740.78345,-3740.64424,1.28,0,337.740499,0.000153311118,588
0.39028,0.19514,3749.48747,-3749.29416,1.28,0,338.512025,0.00015566848,588
0.39156,0.19578,3758.12725,-3757.91886,2.56,0,339.29504,0.000156224234,588
0.39284,0.19642,3766.83303,-3766.60734,1.28,0,341.004788,0.000158429822,600
0.39412,0.19706,3775.52267,-3775.26193,1.28,0,341.769469,0.000158364491,600
0.3954,0.1977,3784.25329,-3783.98458,1.28,0,342.53321,0.00015755478,600
0.39668,0.19834,3792.95188,-3792.67552,1.28,0,343.255154,0.000162094703,600
0.39796,0.19898,3801.72156,-3801.43334,1.28,0,343.940046,0.000160356779,600
0.39924,0.19962,3810.46801,-3810.19798,2.56,0,344.724777,0.000165768769,600
0.40052,0.20026,3819.26345,-3818.96527,1.28,0,346.344442,0.000163434244,612
0.4018,0.2009,3828.11019,-3827.85026,1.28,0,347.011991,0.000169897284,612
0.40308,0.20154,3836.97691,-3836.66364,1.28,0,347.684286,0.000174835969,612
0.40436,0.20218,3845.89056,-3845.61042,1.28,0,348.389567,0.000183446921,612
0.40564,0.20282,3854.80638,-3854.53191,1.28,0,349.042203,0.000189774287,612
0.40692,0.20346,3863.77007,-3863.50724,2.56,0,349.750419,0.000201641472,612
0.4082,0.2041,3872.72717,-3872.50397,1.28,0,351.249074,0.000209904307,624
0.40948,0.20474,3881.75745,-3881.56343,1.28,0,351.886846,0.000220515065,624
0.41076,0.20538,3890.79961,-3890.60141,1.28,0,352.533885,0.000226951281,624
0.41204,0.20602,3899.88224,-3899.71723,1.28,0,353.190096,0.000234918358,624
0.41332,0.20666,3908.98269,-3908.84683,1.28,0,353.855502,0.000238551598,624
0.4146,0.2073,3918.12782,-3918.06567,2.56,0,354.512412,0.000245291068,624
0.41588,0.20794,3927.25278,-3927.21674,1.28,0,355.975561,0.000249453371,636
0.41716,0.20858,3936.43228,-3936.46174,1.28,0,356.618467,0.000253067597,636
0.41844,0.20922,3945.57597,-3945.65634,1.28,0,357.293512,0.000250447509,636
0.41972,0.20986,3954.81742,-3954.86114,1.28,0,357.985811,0.000246479825,636
0.421,0.2105,3963.97154,-3964.1568,1.28,0,358.701052,0.000242556991,636
0.42228,0.21114,3973.19385,-3973.37739,2.56,0,359.63685,0.000240939183,636
0.42356,0.21178,3982.38229,-3982.63236,1.28,0,361.395896,0.000237840386,648
0.42484,0.21242,3991.55831,-3991.85292,1.28,0,362.067761,0.000236720046,648
0.42612,0.21306,4000.73565,-4001.10189,1.28,0,362.73535,0.000243559086,648
0.4274,0.2137,4009.87362,-4010.33448,1.28,0,363.401495,0.000233135026,648
0.42868,0.21434,4019.05334,-4019.47767,1.28,0,364.079373,0.000227554275,648
0.42996,0.21498,4028.13443,-4028.6642,2.56,0,364.778734,0.000221061905,648
0.43124,0.21562,4037.23769,-4037.76592,1.28,0,366.307164,0.000227889479,660
0.43252,0.21626,4046.25197,-4046.89061,1.28,0,366.952464,0.000230336239,660
0.4338,0.2169,4055.28464,-4055.89359,1.28,0,367.586127,0.000218549939,660
0.43508,0.21754,4064.20806,-4064.88512,1.28,0,368.215117,0.000219860109,660
0.43636,0.21818,4073.04624,-4073.77833,1.28,0,368.848719,0.000228156755,660
0.43764,0.21882,4081.84345,-4082.59282,2.56,0,369.503063,0.000230146284,660
0.43892,0.21946,4090.58276,-4091.42924,1.28,0,370.966937,0.000238245031,672
0.4402,0.2201,4099.2475,-4100.05641,1.28,0,371.618827,0.000240520488,672
0.44148,0.22074,4107.83959,-4108.73871,1.28,0,372.272064,0.000250042778,672
0.44276,0.22138,4116.37889,-4117.24609,1.28,0,372.903372,0.000253504875,672
0.44404,0.22202,4124.83592,-4125.73922,1.28,0,373.545861,0.000262392725,672
0.44532,0.22266,4133.21687,-4134.13809,2.56,0,374.178488,0.000267076522,672
0.4466,0.2233,4141.5337,-4142.43997,1.28,0,375.665837,0.000274581419,684
0.44788,0.22394,4149.80221,-4150.64392,1.28,0,376.321145,0.000275968956,684
0.44916,0.22458,4158.0138,-4158.86441,1.28,0,376.946919,0.000281888039,684
0.45044,0.22522,4166.10078,-4166.94047,1.28,0,377.58069,0.000289829567,684
0.45172,0.22586,4174.17431,-4174.97214,1.28,0,378.201984,0.000319770028,684
0.453,0.2265,4182.14839,-4182.9429,2.56,0,378.852128,0.00031118125,684
0.45428,0.22714,4190.13653,-4190.78378,1.28,0,380.319601,0.000295910954,696
0.45556,0.22778,4197.86726,-4198.60437,1.28,0,381.036351,0.000291438337,696
0.45684,0.22842,4205.678,-4206.28397,1.28,0,381.765827,0.000284987968,696
0.45812,0.22906,4213.35644,-4213.98787,1.28,0,382.385212,0.000282211995,696
0.4594,0.2297,4221.11608,-4221.61919,1.28,0,383.029887,0.000279797118,696
0.46068,0.23034,4228.7759,-4229.23996,2.56,0,383.68464,0.000278500307,696
0.46196,0.23098,4236.4423,-4236.80438,1.28,0,385.192862,0.000280070007,708
0.46324,0.23162,4244.02331,-4244.33359,1.28,0,385.869368,0.000280269007,708
0.46452,0.23226,4251.60171,-4251.7884,1.28,0,386.519173,0.000280059364,708
0.4658,0.2329,4259.08697,-4259.2249,1.28,0,387.157232,0.000283333552,708
0.46708,0.23354,4266.62491,-4266.63661,1.28,0,387.808856,0.00028381406,708
0.46836,0.23418,4274.09605,-4274.06432,2.56,0,388.513575,0.000289407409,708
0.46964,0.23482,4281.74407,-4281.54689,1.28,0,390.076113,0.000291987852,720
0.47092,0.23546,4289.22539,-4289.02095,1.28,0,390.765221,0.000301906576,720
0.4722,0.2361,4296.90059,-4296.5369,1.28,0,391.425797,0.000310953942,720
0.47348,0.23674,4304.48779,-4304.06411,1.28,0,392.181225,0.000332702867,720
0.47476,0.23738,4312.15002,-4311.65294,1.28,0,392.88062,0.000350529906,720
0.47604,0.23802,4319.89017,-4319.26807,2.56,0,393.594135,0.000367268666,720
0.47732,0.23866,4327.6112,-4326.91806,1.28,0,395.234196,0.000371630443,732
0.4786,0.2393,4335.40395,-4334.60322,1.28,0,395.965965,0.000389484049,732
0.47988,0.23994,4343.23155,-4342.38547,1.28,0,396.652719,0.000397688652,732
0.48116,0.24058,4351.12096,-4350.17827,1.28,0,397.35464,0.000414231129,732
0.48244,0.24122,4359.04695,-4358.08912,1.28,0,398.067661,0.000423211029,732
0.48372,0.24186,4367.08044,-4366.01107,2.56,0,398.787312,0.000433498451,732
0.485,0.2425,4375.17547,-4374.07248,1.28,0,400.439624,0.000441640654,744
0.48628,0.24314,4383.37061,-4382.22416,1.28,0,401.090267,0.000452759393,744
0.48756,0.24378,4391.63182,-4390.48082,1.28,0,401.778792,0.000451145343,744
0.48884,0.24442,4400.01264,-4398.76749,1.28,0,402.497252,0.00045457416,744
0.49012,0.24506,4408.46125,-4407.21757,1.28,0,403.180926,0.000458650585,744
0.4914,0.2457,4416.885,-4415.69057,2.56,0,403.858324,0.000458776437,744
0.49396,0.24698,4434.06164,-4432.78586,2.56,0,405.027326,0.000571555907,744
0.49652,0.24826,4450.87311,-4449.87302,2.56,0,406.310238,0.000613633586,744
0.4978,0.2489,4459.585,-4458.47807,1.28,0,408.04336,0.000565995865,750
0.49908,0.24954,4468.31649,-4467.23075,1.28,0,408.795726,0.000584652693,750
0.5,0.25,4474.64351,-4473.61676,0.92,0,409.396244,0.000553430592,750
