# ADR90 WP-A2 END-OF-RUN plastic field, build any, leg h1.0_e0.6944, s/B=0.005036, mode FLOOR
ele,xc,zc,hx,hz,vol,eps_q_p,eta_grav
1,-26.4626081,-17.706199,7.07478378,4.58760194,16.2281459,2.1756574e-07,0.855053698
2,-26.4626081,-13.6329249,7.07478378,3.55894634,12.5893879,1.39387065e-06,0.855053698
3,-26.4626081,-10.4729811,7.07478378,2.76094116,9.76653089,3.02986867e-06,0.855053698
4,-26.4626081,-8.02157615,7.07478378,2.1418688,7.57662931,4.63752404e-06,0.855053698
5,-26.4626081,-6.11983775,7.07478378,1.66160801,5.87775869,6.10086693e-06,0.855053698
6,-26.4626081,-4.64451687,7.07478378,1.28903375,4.55981753,7.41105207e-06,0.855053698
7,-26.4626081,-3.5,7.07478378,1,3.53739189,8.60349492e-06,0.855053698
8,-26.4626081,-2.5,7.07478378,1,3.53739189,9.87222255e-06,0.855053698
9,-26.4626081,-1.5,7.07478378,1,3.53739189,1.15202771e-05,0.855053698
10,-26.4626081,-0.5,7.07478378,1,3.53739189,1.40812348e-05,0.855053698
11,-20.1552847,-17.706199,5.539863,4.58760194,12.7073431,1.2090736e-06,0.855053698
12,-20.1552847,-13.6329249,5.539863,3.55894634,9.85803758,2.73469086e-06,0.855053698
13,-20.1552847,-10.4729811,5.539863,2.76094116,7.64761791,4.74186373e-06,0.855053698
14,-20.1552847,-8.02157615,5.539863,2.1418688,5.93282985,6.59285145e-06,0.855053698
15,-20.1552847,-6.11983775,5.539863,1.66160801,4.60254036,8.11694024e-06,0.855053698
16,-20.1552847,-4.64451687,5.539863,1.28903375,3.57053519,9.4399664e-06,0.855053698
17,-20.1552847,-3.5,5.539863,1,2.7699315,1.06182571e-05,0.855053698
18,-20.1552847,-2.5,5.539863,1,2.7699315,1.17964871e-05,0.855053698
19,-20.1552847,-1.5,5.539863,1,2.7699315,1.34136222e-05,0.855053698
20,-20.1552847,-0.5,5.539863,1,2.7699315,1.62030831e-05,0.855053698
21,-15.2163765,-17.706199,4.33795336,4.58760194,9.95040164,3.76926496e-06,0.855053698
22,-15.2163765,-13.6329249,4.33795336,3.55894634,7.71927162,5.51243394e-06,0.855053698
23,-15.2163765,-10.4729811,4.33795336,2.76094116,5.98841701,8.70313541e-06,0.855053698
24,-15.2163765,-8.02157615,4.33795336,2.1418688,4.64566348,1.13618825e-05,0.855053698
25,-15.2163765,-6.11983775,4.33795336,1.66160801,3.60398902,1.31077223e-05,0.855053698
26,-15.2163765,-4.64451687,4.33795336,1.28903375,2.79588414,1.39255026e-05,0.855053698
27,-15.2163765,-3.5,4.33795336,1,2.16897668,1.43343807e-05,0.855053698
28,-15.2163765,-2.5,4.33795336,1,2.16897668,1.49464214e-05,0.855053698
29,-15.2163765,-1.5,4.33795336,1,2.16897668,1.58048878e-05,0.855053698
30,-15.2163765,-0.5,4.33795336,1,2.16897668,1.72811396e-05,0.855053698
31,-11.3489969,-17.706199,3.39680591,4.58760194,7.79159669,4.42910744e-06,0.855053698
32,-11.3489969,-13.6329249,3.39680591,3.55894634,6.04452498,8.47828878e-06,0.855053698
33,-11.3489969,-10.4729811,3.39680591,2.76094116,4.68919063,1.53538067e-05,0.855053698
34,-11.3489969,-8.02157615,3.39680591,2.1418688,3.63775629,2.03385442e-05,0.855053698
35,-11.3489969,-6.11983775,3.39680591,1.66160801,2.82207995,2.27337063e-05,0.855053698
36,-11.3489969,-4.64451687,3.39680591,1.28903375,2.18929873,2.359085e-05,0.855053698
37,-11.3489969,-3.5,3.39680591,1,1.69840295,2.30282682e-05,0.855053698
38,-11.3489969,-2.5,3.39680591,1,1.69840295,2.05882718e-05,0.855053698
39,-11.3489969,-1.5,3.39680591,1,1.69840295,1.75477119e-05,0.855053698
40,-11.3489969,-0.5,3.39680591,1,1.69840295,1.5019521e-05,0.855053698
41,-8.32067065,-17.706199,2.65984657,4.58760194,6.10115865,8.74033033e-06,0.855053698
42,-8.32067065,-13.6329249,2.65984657,3.55894634,4.73312561,1.44227706e-05,0.855053698
43,-8.32067065,-10.4729811,2.65984657,2.76094116,3.67183995,1.99387424e-05,0.855053698
44,-8.32067065,-8.02157615,2.65984657,2.1418688,2.84852119,3.39902422e-05,0.855053698
45,-8.32067065,-6.11983775,2.65984657,1.66160801,2.20981118,4.53583311e-05,0.855053698
46,-8.32067065,-4.64451687,2.65984657,1.28903375,1.714316,4.66071646e-05,0.855053698
47,-8.32067065,-3.5,2.65984657,1,1.32992329,4.10173427e-05,0.855053698
48,-8.32067065,-2.5,2.65984657,1,1.32992329,3.34909552e-05,0.855053698
49,-8.32067065,-1.5,2.65984657,1,1.32992329,2.24977484e-05,0.855053698
50,-8.32067065,-0.5,2.65984657,1,1.32992329,7.74143488e-06,0.855053698
51,-5.94935967,-17.706199,2.0827754,4.58760194,4.77747223,1.71244977e-05,0.855053698
52,-5.94935967,-13.6329249,2.0827754,3.55894634,3.70624294,4.48294324e-05,0.855053698
53,-5.94935967,-10.4729811,2.0827754,2.76094116,2.87521017,4.67713842e-05,0.855053698
54,-5.94935967,-8.02157615,2.0827754,2.1418688,2.23051582,5.11514544e-05,0.855053698
55,-5.94935967,-6.11983775,2.0827754,1.66160801,1.73037814,8.59067856e-05,0.855053698
56,-5.94935967,-4.64451687,2.0827754,1.28903375,1.34238389,9.80993533e-05,0.855053698
57,-5.94935967,-3.5,2.0827754,1,1.0413877,9.24185853e-05,0.855053698
58,-5.94935967,-2.5,2.0827754,1,1.0413877,6.73263075e-05,0.855053698
59,-5.94935967,-1.5,2.0827754,1,1.0413877,3.59179703e-05,0.855053698
60,-5.94935967,-0.5,2.0827754,1,1.0413877,1.57735829e-05,0.855053698
61,-4.09252017,-17.706199,1.63090361,4.58760194,3.74096828,2.99683435e-05,0.855053698
62,-4.09252017,-13.6329249,1.63090361,3.55894634,2.90214921,8.54460179e-05,0.855053698
63,-4.09252017,-10.4729811,1.63090361,2.76094116,2.25141445,0.000149842944,0.855053698
64,-4.09252017,-8.02157615,1.63090361,2.1418688,1.74659077,0.00021261623,0.855053698
65,-4.09252017,-6.11983775,1.63090361,1.66160801,1.35496124,0.000256444268,0.855053698
66,-4.09252017,-4.64451687,1.63090361,1.28903375,1.05114489,0.000234732951,0.855053698
67,-4.09252017,-3.5,1.63090361,1,0.815451803,0.000261346255,0.855053698
68,-4.09252017,-2.5,1.63090361,1,0.815451803,0.000233258682,0.855053698
69,-4.09252017,-1.5,1.63090361,1,0.815451803,0.000117139759,0.855053698
70,-4.09252017,-0.5,1.63090361,1,0.815451803,8.06551303e-05,0.855053698
71,-2.63853418,-17.706199,1.27706836,4.58760194,2.92934065,3.35251766e-05,0.855053698
72,-2.63853418,-13.6329249,1.27706836,3.55894634,2.27250889,0.000105719571,0.855053698
73,-2.63853418,-10.4729811,1.27706836,2.76094116,1.76295531,0.000192502453,0.855053698
74,-2.63853418,-8.02157615,1.27706836,2.1418688,1.36765644,0.000298822542,0.855053698
75,-2.63853418,-6.11983775,1.27706836,1.66160801,1.06099351,0.000454170157,0.855053698
76,-2.63853418,-4.64451687,1.27706836,1.28903375,0.82309211,0.000578693226,0.855053698
77,-2.63853418,-3.5,1.27706836,1,0.638534182,0.000638796306,0.855053698
78,-2.63853418,-2.5,1.27706836,1,0.638534182,0.000717556062,0.855053698
79,-2.63853418,-1.5,1.27706836,1,0.638534182,0.000637156708,0.855053698
80,-2.63853418,-0.5,1.27706836,1,0.638534182,0.000264612887,0.855053698
81,-1.5,-17.706199,1,4.58760194,2.29380097,3.43928753e-05,0.855053698
82,-1.5,-13.6329249,1,3.55894634,1.77947317,0.000113675283,0.855053698
83,-1.5,-10.4729811,1,2.76094116,1.38047058,0.000215168682,0.855053698
84,-1.5,-8.02157615,1,2.1418688,1.0709344,0.000367735115,0.855053698
85,-1.5,-6.11983775,1,1.66160801,0.830804003,0.000575097632,0.855053698
86,-1.5,-4.64451687,1,1.28903375,0.644516874,0.000850339914,0.855053698
87,-1.5,-3.5,1,1,0.5,0.00117095036,0.855053698
88,-1.5,-2.5,1,1,0.5,0.00157955405,0.855053698
89,-1.5,-1.5,1,1,0.5,0.00207554014,0.855053698
90,-1.5,-0.5,1,1,0.5,0.0029828093,0.855053698
91,-0.5,-17.706199,1,4.58760194,2.29380097,3.42797888e-05,0.855053698
92,-0.5,-13.6329249,1,3.55894634,1.77947317,0.000115963499,0.855053698
93,-0.5,-10.4729811,1,2.76094116,1.38047058,0.000227818667,0.855053698
94,-0.5,-8.02157615,1,2.1418688,1.0709344,0.00038531954,0.855053698
95,-0.5,-6.11983775,1,1.66160801,0.830804003,0.000619408713,0.855053698
96,-0.5,-4.64451687,1,1.28903375,0.644516874,0.000932489348,0.855053698
97,-0.5,-3.5,1,1,0.5,0.00126943352,0.855053698
98,-0.5,-2.5,1,1,0.5,0.00168508156,0.855053698
99,-0.5,-1.5,1,1,0.5,0.00153145656,0.855053698
100,-0.5,-0.5,1,1,0.5,0.0006292413,0.855053698
101,0.5,-17.706199,1,4.58760194,2.29380097,3.42666645e-05,0.855053698
102,0.5,-13.6329249,1,3.55894634,1.77947317,0.000115987941,0.855053698
103,0.5,-10.4729811,1,2.76094116,1.38047058,0.000228030216,0.855053698
104,0.5,-8.02157615,1,2.1418688,1.0709344,0.000385387578,0.855053698
105,0.5,-6.11983775,1,1.66160801,0.830804003,0.000619472457,0.855053698
106,0.5,-4.64451687,1,1.28903375,0.644516874,0.000932570944,0.855053698
107,0.5,-3.5,1,1,0.5,0.00126997242,0.855053698
108,0.5,-2.5,1,1,0.5,0.0016852526,0.855053698
109,0.5,-1.5,1,1,0.5,0.0015310183,0.855053698
110,0.5,-0.5,1,1,0.5,0.000629317985,0.855053698
111,1.5,-17.706199,1,4.58760194,2.29380097,3.43874962e-05,0.855053698
112,1.5,-13.6329249,1,3.55894634,1.77947317,0.000113600901,0.855053698
113,1.5,-10.4729811,1,2.76094116,1.38047058,0.000214871363,0.855053698
114,1.5,-8.02157615,1,2.1418688,1.0709344,0.000367524575,0.855053698
115,1.5,-6.11983775,1,1.66160801,0.830804003,0.000575032583,0.855053698
116,1.5,-4.64451687,1,1.28903375,0.644516874,0.000850359824,0.855053698
117,1.5,-3.5,1,1,0.5,0.00117122308,0.855053698
118,1.5,-2.5,1,1,0.5,0.0015795538,0.855053698
119,1.5,-1.5,1,1,0.5,0.00207533178,0.855053698
120,1.5,-0.5,1,1,0.5,0.00298243193,0.855053698
121,2.63853418,-17.706199,1.27706836,4.58760194,2.92934065,3.35171961e-05,0.855053698
122,2.63853418,-13.6329249,1.27706836,3.55894634,2.27250889,0.000105722819,0.855053698
123,2.63853418,-10.4729811,1.27706836,2.76094116,1.76295531,0.000192533264,0.855053698
124,2.63853418,-8.02157615,1.27706836,2.1418688,1.36765644,0.000298780185,0.855053698
125,2.63853418,-6.11983775,1.27706836,1.66160801,1.06099351,0.00045387707,0.855053698
126,2.63853418,-4.64451687,1.27706836,1.28903375,0.82309211,0.000578833229,0.855053698
127,2.63853418,-3.5,1.27706836,1,0.638534182,0.000639018114,0.855053698
128,2.63853418,-2.5,1.27706836,1,0.638534182,0.000717494998,0.855053698
129,2.63853418,-1.5,1.27706836,1,0.638534182,0.00063741733,0.855053698
130,2.63853418,-0.5,1.27706836,1,0.638534182,0.000264520731,0.855053698
131,4.09252017,-17.706199,1.63090361,4.58760194,3.74096828,2.99538793e-05,0.855053698
132,4.09252017,-13.6329249,1.63090361,3.55894634,2.90214921,8.54776329e-05,0.855053698
133,4.09252017,-10.4729811,1.63090361,2.76094116,2.25141445,0.000149933917,0.855053698
134,4.09252017,-8.02157615,1.63090361,2.1418688,1.74659077,0.000212563997,0.855053698
135,4.09252017,-6.11983775,1.63090361,1.66160801,1.35496124,0.000256498109,0.855053698
136,4.09252017,-4.64451687,1.63090361,1.28903375,1.05114489,0.000234834507,0.855053698
137,4.09252017,-3.5,1.63090361,1,0.815451803,0.000261482323,0.855053698
138,4.09252017,-2.5,1.63090361,1,0.815451803,0.000233741276,0.855053698
139,4.09252017,-1.5,1.63090361,1,0.815451803,0.000117030256,0.855053698
140,4.09252017,-0.5,1.63090361,1,0.815451803,8.06764299e-05,0.855053698
141,5.94935967,-17.706199,2.0827754,4.58760194,4.77747223,1.710377e-05,0.855053698
142,5.94935967,-13.6329249,2.0827754,3.55894634,3.70624294,4.48438635e-05,0.855053698
143,5.94935967,-10.4729811,2.0827754,2.76094116,2.87521017,4.67878302e-05,0.855053698
144,5.94935967,-8.02157615,2.0827754,2.1418688,2.23051582,5.11432426e-05,0.855053698
145,5.94935967,-6.11983775,2.0827754,1.66160801,1.73037814,8.59217948e-05,0.855053698
146,5.94935967,-4.64451687,2.0827754,1.28903375,1.34238389,9.7926005e-05,0.855053698
147,5.94935967,-3.5,2.0827754,1,1.0413877,9.23861985e-05,0.855053698
148,5.94935967,-2.5,2.0827754,1,1.0413877,6.72560255e-05,0.855053698
149,5.94935967,-1.5,2.0827754,1,1.0413877,3.59110993e-05,0.855053698
150,5.94935967,-0.5,2.0827754,1,1.0413877,1.58296411e-05,0.855053698
151,8.32067065,-17.706199,2.65984657,4.58760194,6.10115865,8.65737564e-06,0.855053698
152,8.32067065,-13.6329249,2.65984657,3.55894634,4.73312561,1.44269291e-05,0.855053698
153,8.32067065,-10.4729811,2.65984657,2.76094116,3.67183995,1.99391135e-05,0.855053698
154,8.32067065,-8.02157615,2.65984657,2.1418688,2.84852119,3.39830044e-05,0.855053698
155,8.32067065,-6.11983775,2.65984657,1.66160801,2.20981118,4.53482077e-05,0.855053698
156,8.32067065,-4.64451687,2.65984657,1.28903375,1.714316,4.66114798e-05,0.855053698
157,8.32067065,-3.5,2.65984657,1,1.32992329,4.10124425e-05,0.855053698
158,8.32067065,-2.5,2.65984657,1,1.32992329,3.34828381e-05,0.855053698
159,8.32067065,-1.5,2.65984657,1,1.32992329,2.2482424e-05,0.855053698
160,8.32067065,-0.5,2.65984657,1,1.32992329,7.73555552e-06,0.855053698
161,11.3489969,-17.706199,3.39680591,4.58760194,7.79159669,4.42640477e-06,0.855053698
162,11.3489969,-13.6329249,3.39680591,3.55894634,6.04452498,8.48268225e-06,0.855053698
163,11.3489969,-10.4729811,3.39680591,2.76094116,4.68919063,1.53573216e-05,0.855053698
164,11.3489969,-8.02157615,3.39680591,2.1418688,3.63775629,2.03393569e-05,0.855053698
165,11.3489969,-6.11983775,3.39680591,1.66160801,2.82207995,2.27326058e-05,0.855053698
166,11.3489969,-4.64451687,3.39680591,1.28903375,2.18929873,2.3588756e-05,0.855053698
167,11.3489969,-3.5,3.39680591,1,1.69840295,2.30264426e-05,0.855053698
168,11.3489969,-2.5,3.39680591,1,1.69840295,2.05861731e-05,0.855053698
169,11.3489969,-1.5,3.39680591,1,1.69840295,1.75432754e-05,0.855053698
170,11.3489969,-0.5,3.39680591,1,1.69840295,1.5012648e-05,0.855053698
171,15.2163765,-17.706199,4.33795336,4.58760194,9.95040164,3.76760398e-06,0.855053698
172,15.2163765,-13.6329249,4.33795336,3.55894634,7.71927162,5.51140083e-06,0.855053698
173,15.2163765,-10.4729811,4.33795336,2.76094116,5.98841701,8.7038276e-06,0.855053698
174,15.2163765,-8.02157615,4.33795336,2.1418688,4.64566348,1.13626125e-05,0.855053698
175,15.2163765,-6.11983775,4.33795336,1.66160801,3.60398902,1.31078788e-05,0.855053698
176,15.2163765,-4.64451687,4.33795336,1.28903375,2.79588414,1.39250207e-05,0.855053698
177,15.2163765,-3.5,4.33795336,1,2.16897668,1.43332037e-05,0.855053698
178,15.2163765,-2.5,4.33795336,1,2.16897668,1.49449114e-05,0.855053698
179,15.2163765,-1.5,4.33795336,1,2.16897668,1.58030667e-05,0.855053698
180,15.2163765,-0.5,4.33795336,1,2.16897668,1.72787746e-05,0.855053698
181,20.1552847,-17.706199,5.539863,4.58760194,12.7073431,1.20847184e-06,0.855053698
182,20.1552847,-13.6329249,5.539863,3.55894634,9.85803758,2.73369986e-06,0.855053698
183,20.1552847,-10.4729811,5.539863,2.76094116,7.64761791,4.7407651e-06,0.855053698
184,20.1552847,-8.02157615,5.539863,2.1418688,5.93282985,6.59191392e-06,0.855053698
185,20.1552847,-6.11983775,5.539863,1.66160801,4.60254036,8.11602146e-06,0.855053698
186,20.1552847,-4.64451687,5.539863,1.28903375,3.57053519,9.43896727e-06,0.855053698
187,20.1552847,-3.5,5.539863,1,2.7699315,1.06171837e-05,0.855053698
188,20.1552847,-2.5,5.539863,1,2.7699315,1.17952555e-05,0.855053698
189,20.1552847,-1.5,5.539863,1,2.7699315,1.34122401e-05,0.855053698
190,20.1552847,-0.5,5.539863,1,2.7699315,1.6201123e-05,0.855053698
191,26.4626081,-17.706199,7.07478378,4.58760194,16.2281459,2.17452393e-07,0.855053698
192,26.4626081,-13.6329249,7.07478378,3.55894634,12.5893879,1.3933551e-06,0.855053698
193,26.4626081,-10.4729811,7.07478378,2.76094116,9.76653089,3.02893495e-06,0.855053698
194,26.4626081,-8.02157615,7.07478378,2.1418688,7.57662931,4.63628665e-06,0.855053698
195,26.4626081,-6.11983775,7.07478378,1.66160801,5.87775869,6.09944696e-06,0.855053698
196,26.4626081,-4.64451687,7.07478378,1.28903375,4.55981753,7.40950772e-06,0.855053698
197,26.4626081,-3.5,7.07478378,1,3.53739189,8.6018459e-06,0.855053698
198,26.4626081,-2.5,7.07478378,1,3.53739189,9.8704797e-06,0.855053698
199,26.4626081,-1.5,7.07478378,1,3.53739189,1.15184008e-05,0.855053698
200,26.4626081,-0.5,7.07478378,1,3.53739189,1.40791419e-05,0.855053698
